452
436
439
409
385
355
338
330
325
328
318
336
322
341
319
343
324
355
332
356
333
358
326
355
323
348
336
382
338
356
327
360
330
365
328
347
489
674
621
351
366
375
363
356
372
369
383
386
394
403
420
442
427
440
434
434
395
385
343
338
303
331
296
330
309
340
304
338
321
337
311
348
358
328
352
329
367
322
357
329
362
348
361
324
373
336
353
339
349
344
627
669
487
352
376
367
369
368
372
378
375
401
395
417
417
442
432
465
436
447
409
418
361
364
319
333
305
341
312
343
312
352
311
352
315
348
320
347
319
346
321
337
322
348
331
346
330
350
352
369
348
351
350
347
358
357
363
384
671
671
466
359
412
375
390
369
400
385
432
407
451
430
474
490
477
517
481
500
435
438
381
403
363
386
360
395
368
395
369
397
380
399
385
398
389
389
388
392
392
388
398
393
399
373
399
384
412
401
396
375
406
386
404
380
412
391
672
667
489
357
391
419
388
435
397
442
416
448
422
470
451
502
438
486
450
459
408
388
360
352
334
327
331
326
337
326
345
318
350
311
348
322
354
323
360
325
355
323
358
318
360
306
358
304
332
359
280
340
300
355
320
354
318
349
300
392
600
640
332
361
352
329
355
350
355
351
317
339
374
383
371
408
426
439
415
417
364
353
304
319
263
307
274
313
272
322
280
324
288
326
284
331
292
328
291
306
282
327
289
327
291
327
292
319
303
324
305
320
317
320
317
318
317
321
317
314
306
307
527
668
514
281
347
302
333
308
359
325
339
343
393
360
415
388
439
382
430
398
410
356
368
316
337
271
320
289
325
296
323
303
305
299
317
305
334
308
305
317
327
316
294
331
341
352
318
331
304
335
325
352
303
352
327
359
321
385
336
363
313
369
346
380
350
382
380
673
667
447
352
419
356
403
354
389
372
401
392
427
420
438
440
466
462
465
466
451
416
379
371
339
344
328
348
331
349
327
357
329
370
337
378
338
376
342
385
348
372
340
388
351
390
351
388
354
390
355
382
357
402
384
390
363
384
365
389
375
363
372
664
671
480
367
405
397
392
403
386
411
401
427
407
438
424
470
428
490
448
482
423
441
374
385
332
363
304
356
278
359
294
355
308
362
310
364
325
373
373
350
371
353
363
353
364
360
344
330
353
344
343
346
344
351
359
381
347
365
353
382
354
381
330
407
656
669
401
390
351
392
350
392
359
401
372
411
384
426
402
452
425
466
442
459
408
413
336
301
318
304
309
291
304
312
313
320
328
332
321
336
319
340
308
333
320
332
306
344
318
349
315
351
304
352
323
351
313
354
329
373
309
359
317
354
325
360
315
402
642
650
357
366
359
364
349
361
344
365
361
380
384
390
406
405
430
437
455
432
438
372
361
311
326
293
320
273
318
274
321
294
335
268
340
286
345
290
345
314
350
313
353
283
351
324
350
305
347
325
345
328
353
349
342
324
320
329
346
355
343
329
519
666
450
323
360
387
361
392
344
389
375
414
388
431
410
460
419
482
483
440
452
355
379
298
343
291
323
284
354
295
344
353
333
351
343
348
325
353
335
354
344
358
348
346
349
336
364
353
371
348
383
354
347
333
363
340
381
328
384
331
589
670
569
342
420
373
382
350
397
349
410
378
420
394
448
421
470
456
484
461
421
406
358
353
336
329
325
328
334
315
342
331
349
339
344
332
351
336
366
340
366
332
368
328
373
329
369
330
364
330
374
324
376
354
391
341
377
343
377
347
375
333
437
671
666
385
387
381
376
362
372
374
379
390
398
406
412
432
432
457
447
467
442
449
394
382
324
343
307
334
302
333
300
344
314
348
317
351
320
357
324
352
321
358
323
356
329
348
315
353
338
353
314
353
343
352
349
350
349
350
366
367
360
346
357
346
355
356
365
348
671
654
471
339
399
359
381
347
377
362
398
411
385
437
405
452
416
477
439
454
400
394
340
341
309
324
310
322
313
322
294
324
331
322
331
328
336
330
341
331
345
326
345
323
349
332
355
325
354
323
356
338
381
344
364
333
369
373
328
362
455
672
523
339
354
394
355
393
363
395
377
413
396
424
418
444
442
460
453
457
442
428
398
368
346
327
338
330
342
324
345
323
338
321
355
334
364
338
366
335
372
334
372
341
374
336
378
336
373
338
371
339
370
356
389
349
370
347
372
355
370
352
379
626
672
491
362
394
374
376
368
382
378
398
389
415
404
435
424
456
441
470
439
453
403
396
338
352
313
338
307
338
310
341
311
349
319
351
326
352
329
353
331
350
333
350
332
349
338
342
339
342
338
333
356
358
350
336
346
340
359
343
354
361
652
666
440
334
393
333
361
348
384
354
376
366
408
387
429
405
450
427
457
426
442
389
383
313
330
308
327
312
319
312
326
321
330
327
326
332
332
336
331
341
333
347
346
325
336
323
349
323
353
344
369
320
358
330
360
324
366
322
437
670
614
317
371
361
379
342
381
354
393
369
399
394
425
418
437
452
446
454
423
401
367
349
334
324
325
318
330
318
331
317
343
331
350
330
354
335
362
337
366
334
368
331
367
333
363
339
382
356
371
334
368
347
375
345
367
395
672
613
386
357
394
365
379
373
378
380
390
395
400
415
420
438
433
450
437
442
412
404
348
353
318
335
308
334
310
340
309
343
310
350
322
355
322
357
320
360
323
358
327
358
333
354
331
351
342
374
337
349
338
353
342
352
348
369
613
670
492
345
390
365
364
352
380
368
388
377
410
394
431
407
450
428
462
429
445
390
387
324
348
302
339
305
336
306
340
309
344
316
348
349
327
351
334
349
337
331
331
342
337
344
338
339
350
357
363
338
349
336
358
341
360
328
518
672
634
322
412
318
406
316
406
331
408
345
421
366
432
392
454
402
450
417
441
397
391
341
342
315
341
311
322
313
327
323
328
331
328
334
330
344
330
349
331
344
335
344
335
351
341
353
329
353
329
371
349
365
332
369
373
338
367
423
673
671
401
353
402
361
389
387
363
406
380
430
383
466
377
495
419
509
508
464
445
418
391
375
358
361
348
362
351
368
350
342
390
394
368
391
371
396
376
399
376
399
406
377
404
378
399
376
414
394
410
382
409
386
410
391
409
385
631
673
574
359
429
411
411
410
414
419
421
433
433
449
448
469
466
485
465
478
449
444
393
390
352
364
321
361
330
360
334
362
338
364
341
369
342
370
344
371
348
368
344
361
341
363
345
357
344
348
344
361
364
343
344
342
349
342
351
333
393
655
670
392
357
353
363
329
360
339
368
341
380
359
396
377
418
395
430
401
425
381
382
321
323
282
300
274
306
270
295
278
301
290
302
293
301
300
303
302
300
306
298
306
298
311
297
310
291
311
301
332
287
318
289
318
296
324
297
313
438
668
455
294
315
352
308
343
318
353
332
365
348
381
372
402
396
426
414
425
408
389
345
324
300
290
288
281
290
284
293
285
305
285
311
293
320
298
326
303
332
304
335
305
338
308
339
304
341
319
362
310
342
313
351
324
355
327
358
559
633
414
341
371
378
360
377
372
386
386
399
407
413
432
437
456
453
469
450
454
412
401
352
337
331
359
328
363
327
368
336
374
346
382
354
388
353
394
356
394
367
392
367
398
371
413
382
393
374
400
393
400
377
389
384
390
387
392
366
539
673
636
389
409
413
395
408
393
415
399
429
409
446
426
465
446
486
461
490
442
456
389
388
338
356
322
350
317
352
330
352
330
352
330
352
339
348
343
348
341
347
344
346
346
345
349
343
351
334
349
342
369
343
353
336
357
336
362
322
354
531
673
564
347
359
377
339
370
344
379
353
391
368
405
378
426
407
445
425
446
413
408
357
342
313
314
298
301
263
299
303
308
319
314
324
315
329
315
337
315
339
318
343
310
352
327
351
325
356
316
355
326
361
339
391
342
368
341
372
342
377
345
355
560
671
487
349
388
400
381
431
398
405
407
415
420
435
445
458
479
474
493
479
480
436
423
367
366
339
364
336
365
337
369
340
373
345
379
347
383
352
381
348
388
349
395
361
386
358
383
355
379
394
364
380
365
377
368
375
364
357
499
671
542
335
401
390
395
379
400
382
411
390
421
404
440
424
462
435
473
434
461
403
407
320
343
304
340
303
338
309
345
305
342
311
339
337
344
357
316
326
353
335
338
332
335
334
331
336
327
409
373
339
355
321
340
307
336
308
345
298
388
618
651
350
385
312
369
312
360
323
357
319
381
353
395
375
419
398
434
403
463
397
382
317
317
280
288
276
286
283
287
288
289
294
283
304
290
302
289
309
291
313
292
317
287
322
293
324
293
328
283
321
286
330
304
352
301
331
297
335
302
336
304
313
482
670
488
311
337
351
326
336
328
350
344
363
341
378
390
400
421
421
440
410
429
390
374
321
325
280
309
278
310
272
315
286
321
292
331
280
336
288
344
306
343
307
342
309
344
313
345
319
336
311
345
328
360
343
348
335
349
345
350
353
335
404
670
620
357
373
368
375
350
377
359
394
372
410
387
429
395
454
423
466
431
461
405
416
349
364
312
343
306
340
308
343
317
348
323
351
332
352
332
352
342
356
349
354
351
354
352
350
359
350
364
345
366
336
367
357
391
354
374
347
379
349
385
336
364
519
673
622
376
378
402
358
395
364
403
373
414
391
426
404
449
434
467
448
470
445
435
390
369
340
335
328
325
327
319
331
329
342
328
347
331
350
344
358
333
362
331
365
330
364
332
367
333
368
331
367
339
384
351
368
337
372
343
373
346
371
416
672
530
358
353
398
375
387
378
391
387
398
408
414
430
432
455
454
472
457
468
428
420
360
365
322
344
311
342
292
336
313
353
321
359
329
364
326
363
333
370
337
369
340
369
340
366
342
363
339
359
350
376
361
355
352
359
358
358
360
336
467
671
626
347
391
364
383
347
382
376
380
375
417
394
440
416
461
422
472
433
467
410
419
354
367
323
351
318
349
321
352
328
353
337
364
347
366
353
367
358
367
362
366
369
361
372
367
378
366
380
366
400
389
395
370
399
373
403
372
405
369
671
673
602
371
441
390
420
389
426
399
437
407
449
426
463
448
486
469
492
461
467
430
410
373
365
350
346
342
341
346
341
352
345
360
345
356
351
370
342
368
339
371
327
371
335
370
332
368
328
366
339
385
331
365
326
361
327
368
335
351
494
672
508
329
363
382
355
388
365
378
377
387
393
401
415
422
442
439
457
437
446
398
370
337
346
306
334
284
332
291
339
292
345
312
351
318
355
321
360
318
357
328
348
315
367
333
362
331
356
339
375
356
356
347
337
342
349
350
346
436
671
639
352
382
371
377
357
381
355
388
360
406
373
421
388
449
418
462
422
451
396
406
336
346
291
334
298
334
300
333
305
338
312
340
315
337
307
337
322
337
327
334
331
331
332
329
332
319
337
333
356
322
342
321
349
318
352
309
409
659
669
354
364
333
362
322
365
332
376
342
388
361
393
379
427
400
440
411
432
388
388
332
330
298
305
285
304
295
299
304
301
309
310
319
307
327
302
331
314
333
306
335
308
338
303
339
306
350
319
346
314
347
308
349
311
350
334
640
572
385
300
380
335
363
337
372
350
388
367
395
384
412
410
432
425
434
424
412
392
349
334
306
320
303
325
300
322
297
336
305
341
311
350
308
348
317
360
315
362
323
361
324
361
320
359
323
379
323
360
325
363
327
360
338
362
585
670
486
345
381
363
362
383
351
358
389
385
407
398
429
416
451
430
458
422
446
388
396
335
358
314
350
313
353
317
360
324
367
332
373
339
378
346
376
348
371
364
382
361
383
366
376
361
393
394
390
383
386
393
385
396
387
404
602
674
649
412
419
434
401
433
403
444
413
460
434
481
453
499
475
516
480
515
467
482
408
427
373
398
362
412
367
392
364
399
376
389
384
394
388
388
391
387
392
381
388
385
389
376
394
368
398
386
407
369
393
364
398
360
390
347
522
673
667
334
407
368
407
370
400
364
405
379
415
394
428
404
452
426
450
429
436
404
384
345
335
313
305
302
301
311
298
315
307
323
307
327
315
338
301
335
301
341
304
333
304
332
291
344
316
341
331
287
346
303
338
294
453
613
483
277
352
329
345
316
350
336
357
363
372
373
381
405
408
426
422
419
407
391
350
340
294
311
279
318
288
312
282
321
284
331
295
325
317
338
305
341
315
341
308
362
311
347
307
361
326
358
322
342
334
339
322
354
322
437
672
602
340
371
369
354
365
353
372
358
385
373
408
391
429
397
452
399
430
395
422
343
362
313
341
284
341
267
319
305
337
299
341
317
348
317
350
313
348
317
343
323
341
313
341
329
342
349
341
330
334
331
334
344
330
351
586
673
550
359
359
371
320
377
336
378
352
395
363
406
394
433
407
455
406
448
403
408
348
351
293
351
293
321
301
322
318
329
329
356
340
342
336
361
340
348
351
346
344
349
364
329
370
352
376
360
367
339
379
340
378
337
373
582
675
651
379
372
396
355
385
353
398
371
415
388
420
409
443
418
461
428
456
416
409
369
348
327
323
328
328
319
325
332
321
338
322
334
321
348
323
354
323
357
323
357
318
357
317
362
321
356
319
366
353
357
328
357
316
368
325
354
358
672
666
422
327
380
355
361
358
377
364
388
379
394
401
412
424
431
446
426
446
403
399
340
347
314
325
305
332
288
336
302
341
302
347
265
326
306
356
319
354
315
357
324
369
341
361
333
360
342
368
360
364
334
363
347
356
354
345
342
618
673
555
351
375
370
347
371
354
388
359
405
368
417
398
431
407
458
417
453
420
416
342
356
303
335
294
323
302
333
304
336
310
339
319
343
322
346
325
340
329
332
325
367
342
335
343
331
348
331
350
342
373
330
353
333
363
335
366
322
408
650
673
420
368
355
385
338
383
392
359
397
382
425
400
438
417
456
424
449
416
400
353
353
314
331
314
319
315
320
328
317
331
325
365
288
381
295
383
293
388
295
389
282
399
282
402
286
402
296
392
300
386
321
402
318
368
330
367
341
364
332
385
666
671
421
356
371
375
356
372
372
386
387
392
407
405
424
423
454
447
458
438
436
398
384
335
345
317
340
305
348
314
349
315
356
321
362
332
374
332
375
338
383
347
380
350
380
346
376
358
383
351
382
376
408
379
384
376
394
386
395
388
394
672
674
627
397
433
408
428
401
434
421
453
425
466
446
493
471
516
491
529
485
511
448
449
397
412
379
407
373
410
379
418
399
424
411
416
426
410
424
426
415
420
420
420
421
414
423
412
424
410
423
408
425
394
418
401
438
405
425
391
420
390
416
381
399
478
675
674
480
389
421
382
406
379
415
384
423
400
432
416
448
438
458
458
460
436
423
393
352
334
321
311
304
318
302
318
302
322
304
323
305
328
302
329
294
325
296
325
288
323
299
327
293
325
287
327
292
323
296
319
287
320
297
329
294
308
290
316
299
309
300
288
498
669
495
283
334
325
326
292
334
345
330
358
345
379
370
401
370
405
369
398
340
348
280
