3343
348
336
340
342
347
341
355
345
358
352
360
360
366
358
371
363
372
359
373
445
431
402
374
355
343
348
336
340
342
347
341
355
345
358
352
360
360
366
358
371
363
372
359
373
445
431
402
374
355
343
348
336
340
342
347
341
355
345
358
352
360
360
366
358
371
363
372
359
373
372
354
368
366
391
369
368
367
375
362
378
366
353
542
674
667
379
386
389
375
380
381
386
391
392
411
407
422
422
444
441
460
449
452
425
407
372
353
322
321
330
332
327
349
328
349
342
351
338
348
343
345
339
336
333
349
347
342
338
335
323
345
359
355
335
334
339
352
347
341
326
505
674
658
353
347
364
332
352
350
378
385
377
373
392
388
411
410
427
434
435
419
423
385
363
324
329
321
317
325
323
325
326
331
308
373
302
373
312
365
316
352
338
342
335
344
339
337
336
359
352
345
341
346
339
354
345
340
383
674
671
433
340
376
350
345
364
365
362
379
397
353
431
375
446
396
464
423
427
422
401
370
348
330
334
319
325
323
333
324
337
333
343
335
348
343
354
345
355
349
352
349
358
346
350
369
352
362
369
355
361
363
367
367
364
348
563
674
667
373
391
391
379
387
390
399
398
415
411
432
432
462
447
479
464
487
453
470
427
405
372
374
359
366
352
368
365
373
363
377
372
380
368
380
375
374
377
380
374
366
371
375
384
382
361
362
379
366
370
379
374
424
673
624
398
367
402
382
396
386
399
396
410
408
425
421
440
448
460
459
468
449
452
411
378
354
342
330
328
325
324
322
320
336
329
333
334
340
338
345
337
343
345
345
338
337
331
349
348
349
331
335
340
345
334
340
321
508
671
568
327
359
341
348
341
348
353
363
359
366
383
387
398
411
415
415
424
409
397
357
346
320
326
276
274
336
285
326
299
333
297
333
318
332
317
327
319
333
322
325
314
323
325
346
320
324
324
326
329
332
317
336
637
672
482
325
355
335
336
340
349
326
388
337
396
353
412
367
415
401
441
404
425
379
371
326
320
306
306
305
305
319
286
352
284
359
287
367
278
380
275
378
284
377
288
371
297
355
296
368
300
374
320
372
306
369
326
353
341
347
314
495
674
669
353
368
355
356
349
363
357
371
383
374
397
391
400
431
431
439
437
441
418
398
366
348
331
330
325
326
324
333
337
345
328
385
314
384
323
384
334
386
337
384
344
388
353
374
361
385
382
398
385
377
386
382
400
387
408
376
671
673
602
367
458
398
454
393
470
397
487
407
503
425
513
454
533
473
518
504
500
471
450
431
409
395
400
393
402
391
404
400
401
399
419
403
413
408
417
403
418
407
409
403
411
404
400
403
407
392
397
392
407
405
402
395
391
393
398
392
384
370
587
674
670
402
399
387
377
409
375
400
387
415
399
414
420
433
404
438
460
447
458
417
417
353
342
341
329
323
322
327
319
327
326
324
325
343
332
328
330
322
340
313
336
310
341
313
340
313
338
312
335
306
334
324
342
329
327
320
333
322
331
315
308
555
672
532
312
349
340
329
332
336
342
344
352
352
371
375
383
397
401
414
409
407
382
358
325
309
284
288
281
287
282
297
278
292
285
292
294
304
295
305
299
306
297
308
321
303
296
299
305
306
301
313
327
319
310
316
313
318
317
319
299
399
672
598
328
325
347
329
341
333
346
339
364
356
373
376
393
396
413
412
424
402
407
375
356
320
321
303
306
298
316
303
312
318
319
317
323
326
331
328
330
335
335
333
333
339
326
341
338
336
337
345
326
337
343
365
344
352
338
355
342
357
345
333
457
674
670
388
368
378
358
368
367
377
376
379
393
395
400
415
432
437
449
450
448
433
411
374
359
337
333
329
333
322
332
328
345
338
350
337
354
342
353
343
354
353
347
350
358
342
361
352
360
348
357
350
372
376
367
361
367
365
368
367
360
353
594
673
575
357
390
388
382
390
383
393
399
410
405
426
420
456
452
469
463
472
453
449
407
392
355
355
339
347
336
347
341
349
346
366
354
355
359
361
369
349
364
351
390
342
388
341
394
337
382
341
374
370
380
354
372
360
374
361
373
339
471
673
671
395
384
389
374
381
370
397
379
406
379
423
403
430
441
445
455
452
448
436
413
382
352
344
328
333
316
358
302
363
308
368
317
366
321
372
317
366
333
355
331
354
335
356
344
344
336
338
361
353
368
331
372
326
377
330
377
298
503
673
672
351
402
336
395
327
390
354
411
345
416
366
429
383
452
406
460
419
459
402
419
352
360
315
328
316
323
318
326
325
327
336
345
325
348
326
357
319
360
318
363
319
366
312
357
310
369
314
378
330
362
317
380
319
376
331
360
402
674
620
386
340
393
348
381
356
382
362
394
385
400
403
424
418
447
443
454
439
437
403
382
355
307
355
292
352
294
354
290
366
290
373
295
373
310
380
312
379
313
378
320
372
323
373
327
360
336
381
348
360
351
363
354
364
356
347
418
673
664
397
366
390
371
373
387
355
413
366
429
374
441
393
469
414
481
419
477
419
409
381
364
339
340
329
340
333
345
332
349
348
353
340
356
346
363
345
374
328
383
328
393
317
398
313
399
300
415
314
433
297
418
302
421
303
422
287
498
672
674
396
423
337
412
322
412
342
415
360
408
363
405
403
444
437
452
460
431
418
379
363
331
334
323
330
324
333
329
336
334
334
341
338
342
344
334
344
340
338
342
326
377
314
373
312
364
319
377
333
367
332
346
343
356
326
334
328
608
670
504
329
382
360
362
352
371
385
363
389
362
437
370
458
388
483
406
485
400
454
359
376
330
323
315
316
314
323
318
327
323
344
312
345
320
352
323
364
335
353
343
365
345
363
345
359
351
378
371
364
363
372
363
392
381
349
417
650
672
454
407
378
421
363
429
371
432
404
420
421
445
443
459
470
469
474
486
476
468
420
409
381
374
365
382
366
366
369
387
372
375
402
357
404
371
384
394
392
394
389
392
387
391
388
384
386
381
386
399
380
374
388
372
373
365
373
353
515
674
672
406
391
390
388
380
393
386
399
394
404
403
428
428
450
450
465
457
457
446
408
362
343
340
331
324
328
322
331
327
329
327
335
339
333
332
324
334
335
342
332
340
329
342
328
340
328
346
329
334
332
355
345
330
326
342
328
344
341
329
344
667
671
467
327
364
342
340
347
346
360
331
388
341
409
367
430
382
446
406
456
404
419
343
355
293
320
283
306
281
312
288
308
301
310
304
307
318
302
324
318
303
322
307
306
312
318
319
319
319
311
311
321
335
328
334
318
335
327
339
313
317
445
668
465
330
337
372
335
367
324
365
352
370
373
381
383
416
392
417
443
444
442
411
398
356
351
313
332
282
342
292
341
292
357
295
365
309
360
313
356
334
344
343
346
340
347
340
350
341
342
332
347
341
366
358
350
341
360
348
358
353
342
381
653
672
472
366
385
362
365
369
378
378
383
393
399
407
422
432
437
455
464
462
443
432
387
364
347
339
327
336
323
338
331
350
342
352
341
357
348
360
345
365
352
362
351
366
345
367
358
367
359
370
361
370
385
377
369
373
372
374
376
369
356
482
674
673
431
385
397
380
386
380
397
389
405
402
419
419
441
438
459
462
478
457
455
417
394
358
354
336
343
333
346
339
346
343
348
347
347
357
345
326
354
360
357
355
355
364
354
363
357
364
354
362
348
358
362
382
364
366
351
372
360
370
354
344
500
674
672
395
378
382
362
368
366
373
370
384
384
380
423
386
449
430
442
439
449
426
395
368
343
321
313
310
324
310
324
316
331
318
327
327
335
326
340
325
341
327
337
334
334
337
331
347
319
348
322
355
353
323
332
339
345
339
351
337
349
642
667
451
319
411
332
391
335
400
347
409
359
420
376
435
401
449
436
449
439
442
406
390
347
347
324
325
323
325
324
332
330
336
349
322
358
322
383
302
391
303
388
299
397
306
396
304
394
314
370
328
359
362
354
327
363
333
376
336
376
321
468
673
673
409
376
376
361
366
365
383
380
375
391
389
413
413
431
435
444
442
441
428
405
348
358
300
355
292
357
297
358
306
368
312
367
319
347
336
351
336
355
339
353
336
357
342
358
344
351
346
334
364
367
370
342
364
353
375
346
366
323
596
674
660
398
348
388
344
393
355
396
368
404
381
429
405
448
418
468
430
458
412
415
356
362
326
339
312
325
327
338
328
344
335
344
339
346
338
353
344
349
342
350
346
346
346
347
348
348
347
345
344
343
357
363
362
343
358
347
357
352
360
319
509
673
653
337
381
360
370
341
355
361
381
373
393
388
399
430
429
447
440
442
422
406
365
347
329
326
317
315
324
319
326
329
323
327
341
338
349
341
355
349
349
345
357
333
347
342
355
342
359
361
380
346
360
353
364
353
367
356
361
617
666
481
364
384
374
371
380
391
357
401
363
430
378
451
389
472
409
487
409
472
394
394
358
350
333
343
322
341
331
340
335
349
342
349
351
338
355
350
339
353
346
351
344
355
350
356
342
349
348
365
368
353
344
354
359
355
389
323
398
568
667
448
389
361
401
348
397
358
403
369
408
383
415
413
431
432
444
439
451
434
420
391
370
344
327
352
313
354
309
362
316
357
309
378
320
381
336
339
347
352
345
358
354
354
354
356
343
354
353
375
356
364
347
371
345
365
352
358
493
672
606
356
380
381
364
368
367
383
380
393
386
393
403
423
421
433
438
444
426
413
413
350
365
320
342
305
346
319
358
319
360
328
357
343
353
340
352
342
350
338
358
343
355
345
349
338
352
361
357
346
357
353
356
356
363
350
429
673
669
385
366
381
367
369
367
376
375
389
383
402
403
420
418
437
433
440
423
425
397
381
350
347
324
336
328
340
331
342
330
351
339
350
342
353
348
349
346
355
349
355
354
355
352
349
361
376
357
358
356
363
360
367
355
430
674
672
414
379
385
377
372
385
372
393
388
402
400
423
423
439
434
448
431
443
424
415
385
370
351
349
339
347
343
340
336
345
354
348
360
359
358
360
365
358
366
355
365
355
361
350
359
359
387
370
365
361
374
360
367
379
350
539
675
672
365
398
360
398
348
411
352
420
355
439
370
451
390
477
401
483
387
479
376
445
339
398
309
299
366
302
364
316
360
322
359
332
353
338
336
344
351
342
341
352
328
360
335
373
341
370
329
373
323
381
319
377
445
672
443
335
313
402
332
397
339
394
351
403
382
399
403
422
426
435
420
425
403
412
367
354
328
329
317
318
312
315
309
318
315
325
318
330
325
336
332
336
326
339
332
340
325
330
329
337
333
334
332
333
357
314
359
309
384
532
650
458
349
362
352
349
358
351
366
364
380
374
392
394
412
404
427
413
421
408
400
369
351
328
331
314
324
321
323
324
331
333
332
357
305
348
341
334
336
342
338
343
335
342
331
376
341
341
333
360
344
359
343
349
514
671
569
349
374
376
357
373
366
379
397
355
422
368
440
383
448
404
464
397
458
403
389
361
348
338
336
332
339
330
345
336
348
340
338
337
357
346
358
344
356
351
355
340
345
356
350
380
337
366
349
352
358
354
347
437
673
667
371
373
368
356
368
369
372
369
376
382
392
404
404
415
422
428
428
425
398
403
357
339
331
324
320
331
322
337
315
348
335
347
340
358
336
352
354
348
337
360
345
362
341
348
361
368
371
351
358
368
360
369
362
358
552
674
671
376
392
385
392
378
392
391
403
402
421
420
424
440
444
459
470
452
469
440
430
396
392
368
374
365
385
374
378
383
396
381
394
394
401
401
402
404
406
400
404
411
413
418
390
418
414
430
420
426
416
432
419
429
411
403
668
676
673
455
429
434
419
432
427
438
436
447
445
461
455
477
493
453
501
455
491
424
456
380
410
351
393
346
388
346
375
361
370
358
370
364
382
357
379
352
365
351
361
353
351
341
352
350
360
366
329
351
329
351
324
333
326
522
674
598
306
336
348
336
339
343
350
353
352
367
368
379
393
400
398
406
399
390
371
359
306
306
285
291
285
296
283
299
286
297
296
307
294
312
299
311
301
312
304
311
297
316
296
302
289
315
342
267
319
279
337
280
331
282
353
619
672
448
304
321
320
305
313
317
334
320
342
340
358
347
383
372
398
382
395
376
359
328
304
277
265
305
259
302
282
283
290
289
301
299
303
302
304
287
300
315
305
313
304
308
306
311
293
308
309
330
324
336
310
334
319
333
318
319
289
511
674
665
329
357
344
341
342
345
352
350
366
373
375
387
414
432
430
432
420
421
383
358
337
332
312
323
317
329
319
339
327
341
334
351
332
352
343
352
341
355
347
354
350
353
346
355
352
362
355
360
357
361
347
367
378
374
365
365
367
368
370
368
348
448
674
674
469
373
388
377
368
359
396
375
409
385
416
410
436
432
453
451
467
448
433
420
395
356
355
331
336
331
340
323
342
340
343
338
341
351
346
347
348
342
351
353
351
351
348
360
353
356
350
357
349
352
340
371
341
373
351
371
374
364
360
351
383
355
377
341
377
650
671
515
352
391
376
378
363
372
390
392
398
390
427
400
453
428
464
450
468
440
446
394
373
343
342
326
317
322
335
325
339
328
346
326
351
335
352
334
361
343
353
345
358
350
353
349
355
348
358
362
337
356
356
360
362
358
354
364
369
376
371
360
358
374
365
378
342
338
539
673
605
377
383
394
371
379
379
391
386
404
400
411
414
429
435
445
445
454
448
443
406
387
353
348
331
336
331
350
336
335
342
335
331
343
351
343
347
338
364
336
364
328
358
345
367
348
357
351
363
348
365
349
364
353
367
351
366
356
373
354
370
358
368
364
368
362
356
398
344
401
339
402
338
394
340
415
371
389
367
378
370
378
364
370
338
558
671
630
361
404
373
390
369
386
381
388
393
396
410
400
414
438
438
462
448
462
421
421
387
362
331
336
334
330
330
322
325
324
338
323
376
314
354
319
373
322
358
341
360
336
370
344
361
338
349
