350
279
411
675
676
443
291
311
316
307
310
314
315
324
330
332
347
358
333
332
320
317
320
319
321
319
279
411
675
676
443
291
311
316
307
310
314
315
324
330
332
347
358
333
332
320
317
320
319
321
319
279
411
675
676
443
291
311
316
307
310
314
315
324
330
332
347
358
370
367
363
348
343
325
320
306
308
306
304
310
312
309
311
312
320
319
317
323
326
323
329
321
322
323
324
323
316
329
340
338
325
322
329
326
324
314
274
491
676
676
417
302
315
307
312
312
322
324
327
339
338
350
358
365
375
372
370
363
360
350
336
324
318
315
316
314
317
314
315
317
317
318
322
322
332
325
324
327
327
322
321
327
319
313
324
338
340
323
320
322
321
317
316
264
423
676
677
528
281
301
292
291
296
300
297
308
313
316
323
333
341
345
346
337
336
329
323
313
301
294
291
290
290
288
291
295
293
294
294
297
299
301
299
299
303
301
297
299
298
298
296
297
298
296
301
303
297
304
311
315
301
300
303
303
304
293
252
451
676
674
331
280
300
294
295
295
297
305
306
313
321
327
337
347
356
351
347
340
333
326
310
302
294
292
290
289
288
290
292
292
292
296
296
300
303
302
304
298
305
301
300
295
299
308
316
301
300
301
305
310
305
275
351
672
632
357
277
316
311
309
319
324
326
331
336
348
356
368
379
388
391
388
374
371
351
333
321
315
310
306
308
309
310
309
311
315
319
324
326
327
329
327
329
328
325
320
321
334
340
323
322
322
323
321
320
288
361
674
674
442
287
320
313
311
316
320
325
328
332
340
349
362
371
384
386
382
376
367
351
332
317
308
303
299
300
303
301
302
303
307
310
312
318
319
319
318
320
320
317
317
311
313
322
330
324
313
312
312
313
315
288
287
625
676
669
284
303
303
302
305
308
311
316
320
328
331
347
357
367
372
372
368
360
351
335
320
313
308
302
302
303
305
307
307
309
307
309
313
313
312
316
315
314
312
313
310
309
312
311
308
306
304
307
318
320
305
302
304
303
301
289
250
441
676
675
334
262
279
269
272
276
280
286
293
298
304
313
323
334
345
347
346
343
334
324
310
301
292
291
292
294
298
299
302
305
310
314
314
320
322
322
323
325
324
323
324
325
324
324
318
323
334
342
330
328
328
329
335
334
295
347
675
677
621
298
327
321
318
320
329
330
333
340
346
353
363
374
385
387
384
377
369
360
348
332
322
316
310
310
313
311
314
315
312
312
314
316
318
320
318
318
315
307
309
317
324
319
307
306
309
308
305
285
270
606
676
644
257
298
298
296
298
303
306
312
317
322
334
342
350
361
365
365
355
346
334
319
301
295
292
288
290
287
288
288
288
288
290
291
294
296
295
291
290
291
288
284
285
294
302
295
285
284
289
293
292
267
266
598
676
651
268
299
298
297
301
305
311
318
321
332
338
346
357
370
376
374
365
363
352
337
326
315
309
307
304
308
310
313
310
313
314
317
319
317
322
322
321
319
319
318
315
306
311
322
328
320
312
311
310
313
315
287
271
602
676
673
290
299
302
297
298
305
310
314
320
323
332
340
349
359
367
364
360
355
347
334
319
313
307
304
300
305
305
309
308
308
310
314
314
314
317
318
316
313
312
312
310
308
312
312
313
310
310
306
306
308
317
324
316
310
313
312
313
314
281
331
675
676
561
271
315
304
304
308
310
313
320
326
331
338
346
356
366
368
367
365
356
348
334
327
317
312
308
312
313
313
314
318
321
324
327
330
329
331
332
334
332
330
332
331
332
334
332
333
328
332
343
348
337
332
336
338
337
334
300
379
676
676
518
297
332
326
325
328
329
333
335
341
347
355
363
369
380
382
376
369
359
350
333
322
316
311
311
307
305
303
310
309
310
311
312
314
315
312
313
311
309
308
306
306
305
298
299
311
320
308
300
304
304
302
306
279
268
587
676
671
274
294
293
293
294
294
301
306
313
315
328
335
345
354
360
358
355
352
341
331
317
306
303
300
300
305
308
306
313
310
314
319
325
322
324
328
325
326
325
325
327
325
329
327
329
329
331
325
325
338
346
345
331
335
337
334
337
317
297
571
677
676
392
318
329
318
320
324
325
332
334
338
350
357
364
371
379
381
375
367
357
348
334
328
323
318
316
317
317
319
323
319
324
325
325
328
325
331
328
325
324
323
322
324
325
322
322
321
318
314
324
334
335
323
324
322
324
328
312
272
439
676
677
492
287
310
306
301
308
309
313
319
320
330
333
346
352
359
360
361
351
343
342
324
320
314
309
309
311
310
309
316
317
319
318
323
320
324
321
320
321
322
318
320
320
320
316
315
326
335
335
324
323
327
325
328
309
267
532
677
676
425
300
312
304
304
310
311
316
317
329
333
342
345
355
360
360
353
345
346
334
322
319
314
308
307
308
311
312
318
318
320
320
322
321
320
320
323
318
321
319
325
319
318
315
323
338
341
323
323
325
321
325
323
277
351
675
677
628
293
308
302
300
303
302
306
311
314
320
327
335
342
345
344
339
334
327
328
322
311
305
303
302
301
304
305
307
308
308
309
310
308
307
304
305
303
302
299
297
298
307
315
302
297
300
301
301
298
267
310
674
676
503
251
299
287
286
295
295
299
308
313
319
328
337
346
354
355
346
341
332
324
315
307
300
300
298
302
301
302
309
312
313
315
316
317
317
322
321
321
317
314
324
333
328
320
319
321
323
325
314
286
522
675
614
283
322
325
322
328
330
333
338
345
351
355
366
376
387
390
385
378
370
359
349
337
331
324
322
325
325
330
328
329
330
335
339
340
341
341
341
339
336
334
344
350
339
332
335
336
335
334
316
326
640
675
530
283
332
324
321
328
327
333
338
342
349
356
365
375
383
383
379
374
363
346
334
325
321
314
315
317
318
322
324
327
329
332
335
337
337
335
337
336
331
328
330
342
346
331
329
330
329
331
332
305
318
671
676
601
287
328
319
317
321
327
329
332
337
345
351
359
368
375
375
370
367
359
350
342
331
322
322
320
320
320
324
327
328
330
329
332
333
330
331
332
330
330
329
328
328
325
322
320
325
337
342
325
324
326
327
329
326
297
315
673
676
642
289
320
317
312
316
319
320
325
330
337
343
351
361
366
369
365
357
350
342
336
328
323
322
320
317
319
323
322
324
328
329
329
329
330
329
329
326
326
327
324
323
324
321
323
325
322
323
321
323
321
323
321
318
320
331
336
327
322
322
324
324
321
289
346
675
675
521
277
319
309
308
313
314
318
327
331
336
341
350
357
365
364
361
353
342
335
328
322
317
311
313
316
312
317
318
318
324
326
330
330
331
334
330
333
330
329
330
333
331
329
331
333
331
325
332
342
351
344
337
337
341
340
343
324
304
593
676
669
309
333
335
334
336
343
346
349
353
358
366
370
381
389
391
389
377
369
361
349
339
333
331
327
327
329
329
330
334
335
337
339
342
342
341
342
340
339
335
338
337
331
328
336
346
344
328
328
326
330
329
321
280
423
676
676
431
294
319
309
311
312
315
317
323
329
335
343
350
358
365
364
359
350
344
332
320
312
307
303
302
303
304
306
308
309
312
310
311
312
314
311
312
312
312
310
306
306
319
328
318
309
308
311
312
315
295
265
547
676
674
295
300
303
297
297
301
305
307
312
319
330
338
346
353
357
355
349
340
335
323
311
306
300
299
298
300
304
306
307
310
311
315
316
318
319
317
320
320
319
317
316
319
330
336
326
324
326
329
328
332
314
289
603
676
660
293
326
329
326
331
338
342
347
354
361
368
376
391
399
400
395
386
382
372
360
349
344
341
341
341
342
341
349
347
350
354
356
355
357
359
357
355
354
351
347
347
352
362
356
345
346
347
347
344
336
297
490
676
675
377
319
335
325
327
332
334
338
340
348
353
362
374
380
382
382
374
365
356
346
336
325
320
320
318
318
320
324
324
326
329
331
332
331
332
331
331
330
327
325
328
336
342
329
324
326
327
328
329
305
293
611
676
673
306
320
315
309
315
316
321
329
332
339
348
354
363
371
373
368
361
353
345
336
327
320
317
316
318
318
318
321
324
326
326
326
325
326
325
325
324
323
324
319
318
321
333
340
325
319
320
322
321
320
290
308
669
677
626
277
313
306
302
304
309
313
315
321
328
336
343
353
361
359
354
347
339
332
321
311
306
304
303
299
303
307
308
310
310
312
313
313
313
313
312
311
312
310
306
306
305
316
324
316
308
308
309
312
314
303
265
495
676
665
290
305
316
313
316
318
324
329
335
340
346
357
367
377
378
373
364
358
351
341
331
325
320
321
323
323
324
328
332
330
335
338
338
337
336
335
334
333
330
328
324
328
337
346
332
328
327
329
333
331
311
322
650
676
579
292
332
328
326
325
328
334
339
341
350
357
364
374
382
382
375
367
360
350
337
328
325
321
323
324
323
327
331
330
329
332
336
332
331
330
332
331
330
329
325
327
332
346
340
328
328
333
331
332
322
293
502
676
674
327
318
325
317
319
323
326
329
333
342
348
356
363
372
374
369
361
353
345
335
326
320
321
316
317
319
320
324
325
324
328
327
324
324
325
321
323
323
321
321
316
313
318
326
333
320
316
315
316
319
318
290
326
671
675
529
273
314
304
303
304
306
311
313
320
324
333
337
343
348
345
341
333
325
320
311
304
303
300
300
301
304
305
306
311
311
313
311
312
312
312
309
309
307
306
304
303
307
321
326
312
306
310
309
313
310
281
335
674
676
522
271
317
303
296
302
308
312
317
320
329
334
343
350
353
351
343
336
330
328
322
318
315
313
311
313
316
317
318
322
322
322
322
324
325
325
321
323
324
318
316
326
336
333
324
319
321
325
325
318
279
481
676
676
378
300
322
311
314
317
323
330
334
341
347
357
364
369
370
364
356
350
347
344
336
335
332
332
329
331
332
335
337
338
337
337
336
334
335
334
336
330
331
329
335
344
335
326
324
324
324
325
320
284
481
676
675
331
301
316
307
309
313
318
321
326
332
341
349
356
362
360
356
346
337
334
325
321
315
315
314
314
314
316
319
322
325
330
329
329
329
330
331
329
324
328
334
341
326
323
323
328
330
327
306
350
674
675
478
283
329
317
318
322
326
327
335
338
345
351
361
370
374
368
362
351
345
336
327
323
324
323
321
321
326
326
326
330
332
332
331
337
333
332
328
327
327
337
342
329
325
326
323
324
325
307
310
604
676
615
283
324
315
310
311
318
319
326
328
337
342
347
358
363
360
357
347
342
335
325
319
316
315
313
316
317
322
324
326
324
325
325
324
323
321
324
319
317
320
329
338
326
321
320
322
322
324
300
342
674
676
584
284
319
309
305
309
312
316
319
326
331
336
344
350
353
351
345
338
333
328
324
320
317
317
316
317
319
321
322
324
322
321
322
319
320
319
315
313
310
311
324
328
313
308
311
310
310
307
282
337
675
676
525
257
300
287
286
290
289
289
296
298
302
308
317
322
319
314
308
300
296
292
290
284
285
279
281
285
286
291
293
295
299
300
301
297
299
303
296
295
305
311
314
305
306
305
308
306
307
300
292
597
675
590
257
313
308
309
312
315
322
325
331
339
346
352
361
365
362
353
344
340
333
328
324
325
323
327
327
329
329
335
340
340
341
342
343
344
342
342
336
338
345
352
347
336
336
335
338
336
331
303
518
676
675
355
322
332
324
324
331
331
339
342
351
356
361
366
373
375
369
360
354
347
340
334
331
335
329
328
331
331
334
337
336
340
337
334
334
336
334
335
327
332
341
347
330
329
328
329
326
329
305
352
675
676
578
286
322
311
309
314
316
318
324
330
336
342
352
355
357
353
345
340
335
333
325
321
318
317
319
319
321
322
325
328
328
328
329
329
330
325
324
322
326
338
341
324
321
323
324
326
321
288
359
675
677
559
279
314
303
303
303
309
310
316
321
326
334
340
343
344
339
332
324
320
319
316
312
309
309
309
309
315
315
318
319
318
322
320
318
317
315
314
309
311
320
324
319
310
310
310
313
311
299
277
522
676
669
275
299
303
296
300
304
308
310
318
325
332
340
349
351
351
346
338
331
324
320
311
309
307
311
309
312
315
318
322
325
329
330
331
330
331
329
327
333
340
342
331
327
328
333
333
331
313
341
672
675
524
280
330
322
322
323
326
332
337
341
350
360
369
372
377
375
367
356
350
343
336
331
327
325
325
326
329
331
333
333
337
338
339
341
339
340
337
335
338
344
349
336
332
332
331
332
332
305
354
675
676
558
287
326
316
314
319
321
326
331
337
344
351
360
366
370
369
360
355
349
342
330
325
320
318
318
320
323
325
329
329
330
332
332
331
333
333
329
327
326
331
341
345
329
327
327
326
328
326
287
397
676
676
514
286
317
308
306
310
311
317
319
323
331
338
345
351
354
352
345
337
333
327
317
311
306
305
304
306
307
309
310
315
314
314
315
316
313
314
313
313
309
305
307
315
324
321
309
310
311
313
316
303
265
470
676
675
324
295
311
301
304
309
311
318
326
333
338
346
355
361
362
356
348
341
335
330
323
318
317
315
316
318
319
323
324
327
330
334
334
335
335
334
336
334
334
331
329
334
345
345
329
330
331
332
330
326
284
397
675
676
492
298
323
313
315
317
319
327
330
336
343
351
359
366
371
369
363
356
352
344
334
323
320
319
320
319
320
323
325
327
326
329
330
329
330
331
330
329
329
329
325
323
327
339
339
324
324
325
326
327
326
284
367
675
677
572
292
323
312
312
313
319
322
328
333
339
346
355
363
368
365
361
355
350
341
334
324
322
319
316
316
317
317
319
319
321
324
326
326
325
324
325
324
320
322
320
321
317
313
314
327
331
319
313
316
315
317
317
292
283
624
676
655
278
311
306
304
305
311
312
319
325
327
337
344
352
356
359
354
348
341
332
321
312
306
304
303
301
301
306
307
308
311
317
319
322
325
324
326
328
325
327
323
322
325
335
342
331
326
329
328
330
332
311
288
593
676
656
291
326
324
319
323
329
332
336
341
348
357
366
375
380
382
378
371
363
352
340
331
327
325
323
322
325
325
328
328
330
337
336
337
340
340
339
339
338
336
336
330
328
330
345
351
336
330
330
329
330
331
307
295
626
676
673
313
322
320
317
316
323
327
332
338
343
347
357
365
372
375
371
366
358
351
340
331
322
321
319
318
320
324
325
325
325
329
329
329
330
330
330
330
330
329
330
324
322
328
337
340
326
323
325
327
325
328
290
322
674
677
639
291
318
313
310
312
316
318
325
330
336
344
352
360
364
364
359
353
347
337
325
319
314
309
306
307
308
311
312
311
312
315
315
316
314
314
315
313
313
312
312
312
309
308
308
319
329
315
310
312
313
314
317
299
270
570
676
666
281
308
309
304
311
313
316
320
325
330
339
348
357
365
368
364
357
352
344
331
322
318
314
313
313
314
314
315
320
325
327
330
332
335
336
335
336
335
336
332
329
330
342
347
332
330
331
332
335
334
311
310
642
676
647
296
332
326
323
323
326
330
337
342
349
356
364
375
380
382
378
370
359
350
337
327
318
314
313
314
313
317
317
316
319
319
320
319
322
321
319
319
318
318
316
317
311
308
316
323
329
311
312
313
311
315
312
275
336
675
676
564
277
315
304
300
307
310
315
319
329
333
342
350
361
369
370
368
362
357
347
338
329
322
320
318
321
322
326
331
334
335
337
339
340
342
341
344
346
344
342
343
343
344
338
340
352
360
348
340
343
342
345
344
330
286
515
677
677
439
316
332
324
323
327
331
335
340
346
352
359
367
375
377
376
366
362
355
345
333
325
320
317
313
315
318
321
321
322
323
324
323
323
322
325
321
320
319
318
318
318
317
313
310
320
329
323
313
316
315
317
317
312
267
418
676
675
378
288
314
303
303
307
311
314
320
325
334
342
352
359
367
362
357
349
343
333
320
311
306
302
306
305
304
307
312
315
317
320
323
328
329
331
332
334
332
329
327
328
341
343
329
326
327
329
330
333
307
315
661
676
603
288
335
326
324
328
330
336
340
345
352
363
371
380
388
389
383
375
366
357
343
331
323
321
317
319
320
321
324
327
327
329
333
333
335
337
338
336
336
331
327
332
343
348
335
331
329
329
329
330
304
299
632
676
666
298
323
319
314
317
320
324
328
333
343
352
356
368
376
381
375
369
363
352
336
326
319
314
314
313
314
317
320
322
324
324
326
326
326
328
326
328
328
325
322
325
336
344
332
324
324
323
325
326
310
282
564
677
675
328
311
315
308
311
314
318
322
328
334
339
348
360
368
372
369
361
354
344
332
319
311
304
305
305
304
308
310
311
311
315
314
316
318
317
318
319
317
317
313
312
313
323
328
319
312
313
315
316
314
301
268
527
676
672
294
302
312
305
309
311
315
320
325
331
339
348
359
366
370
368
364
354
343
330
319
312
307
308
308
310
312
314
317
322
323
326
330
332
334
335
335
335
334
331
328
332
343
349
333
332
334
336
337
337
313
308
629
676
664
304
334
331
326
331
334
337
342
348
352
361
368
379
387
390
385
378
371
359
345
335
327
323
320
319
322
323
325
328
330
332
334
336
337
337
338
338
339
336
336
334
328
330
340
348
340
330
331
331
333
333
321
279
483
676
676
419
307
326
319
320
320
325
330
334
340
346
354
363
373
376
376
374
366
357
345
335
325
318
315
317
316
319
318
322
323
322
324
327
327
328
329
329
328
327
327
325
325
326
326
323
323
331
339
340
325
323
326
327
326
324
287
333
675
677
615
284
318
307
304
306
310
312
315
323
327
332
343
352
356
359
355
353
343
332
320
310
300
296
295
294
296
296
301
302
303
306
307
308
309
312
313
313
311
311
312
310
311
308
308
312
324
327
314
312
313
315
314
319
293
294
652
676
597
268
320
314
311
314
317
323
329
334
339
347
358
367
378
378
369
365
357
345
336
320
316
306
302
302
304
305
310
311
312
314
317
322
325
325
325
325
326
325
324
322
319
323
334
338
324
323
322
324
324
326
308
302
600
674
557
280
330
324
323
328
334
338
341
345
354
362
368
382
386
392
393
390
373
361
345
335
325
317
319
320
321
326
326
326
329
327
332
335
337
338
336
338
342
337
338
336
333
338
351
349
335
336
336
334
340
337
312
374
674
674
440
316
343
329
326
332
341
343
347
352
360
373
380
387
398
397
397
388
373
360
343
337
327
325
324
330
330
332
336
337
338
339
338
342
344
343
343
341
348
345
341
342
340
338
338
353
357
346
342
339
339
343
343
323
309
593
676
672
327
336
333
330
331
335
336
342
342
353
357
365
373
386
388
389
382
372
364
350
338
329
322
325
327
321
326
331
329
332
329
336
331
331
335
337
333
334
328
334
334
332
331
330
334
333
323
329
336
347
337
330
330
332
329
333
319
289
533
676
675
350
320
322
315
314
321
323
326
331
338
343
351
361
368
372
369
365
356
348
342
332
322
318
317
320
316
317
322
327
325
327
328
329
329
329
331
328
329
326
327
329
329
328
326
319
326
337
346
334
327
327
326
330
330
308
291
598
677
675
333
318
318
313
311
316
319
323
327
330
339
344
354
361
358
357
351
342
340
333
325
319
317
311
317
317
318
321
324
325
326
327
330
329
329
326
325
323
328
326
325
319
318
326
338
341
325
324
322
327
328
323
286
370
676
677
587
295
319
311
307
310
314
317
321
325
335
343
350
357
360
360
351
344
340
336
325
320
319
314
307
315
314
319
321
318
325
324
323
329
326
320
321
323
316
317
322
317
334
339
317
315
313
314
323
318
291
306
671
677
673
294
306
309
307
301
311
317
314
326
330
330
339
351
349
349
344
341
336
333
335
323
320
311
312
326
314
315
321
322
324
325
332
330
331
338
336
328
331
323
335
344
348
334
328
333
327
335
330
294
411
676
677
561
305
324
313
313
316
318
324
326
327
337
341
354
364
360
359
354
348
349
342
335
330
328
329
319
329
325
329
334
336
335
338
339
340
330
338
332
332
333
352
344
328
329
334
331
331
330
285
432
677
677
536
295
319
309
304
307
312
312
320
321
330
335
347
345
345
347
338
330
336
333
326
322
320
318
318
320
317
321
326
325
329
327
328
328
320
321
325
336
340
324
320
318
320
321
320
289
282
665
677
675
332
305
301
296
301
303
306
310
312
319
323
330
335
337
332
327
325
320
318
320
308
307
304
302
300
299
304
305
307
307
306
309
305
307
307
318
323
308
302
301
306
306
304
274
274
653
676
593
253
308
296
290
295
301
305
309
319
323
333
342
349
354
354
344
338
333
329
317
315
308
312
314
313
315
321
325
328
332
334
337
338
340
340
355
348
337
337
334
337
337
318
281
556
676
662
304
338
335
329
332
341
344
346
354
359
369
378
385
390
392
389
378
374
361
350
343
336
332
333
330
330
334
337
334
343
345
344
341
342
344
353
356
340
335
332
333
335
326
267
405
676
676
420
307
328
317
318
319
323
329
329
338
347
354
364
370
375
372
370
363
355
343
335
323
322
317
319
320
325
323
325
329
330
331
331
332
328
332
330
329
327
334
342
342
328
327
332
327
331
319
292
512
677
676
370
311
324
312
315
320
324
328
332
338
346
354
364
375
378
375
372
364
357
346
330
321
319
314
313
315
320
322
324
321
325
325
327
327
328
329
328
330
331
330
332
334
333
329
334
334
331
332
332
331
334
333
333
334
334
337
337
338
338
335
337
338
340
341
349
360
356
351
342
340
341
343
340
329
290
520
677
676
460
313
328
320
319
322
324
327
332
336
341
348
358
362
368
370
368
362
359
354
344
335
328
326
321
319
321
323
324
325
328
327
326
328
329
327
328
327
327
327
325
325
323
322
322
322
322
320
322
320
320
318
321
324
334
342
334
333
323
316
319
319
319
303
273
565
676
674
300
303
311
305
306
313
316
321
326
331
340
349
357
369
377
375
369
364
352
339
324
314
306
302
302
299
301
302
301
300
302
304
310
309
308
309
308
307
305
304
303
299
298
297
295
294
292
287
291
301
307
299
294
298
301
300
301
279
278
619
675
602
256
310
306
302
309
315
320
327
332
339
348
362
375
388
394
397
392
385
369
351
335
326
318
316
315
319
323
324
324
325
325
329
336
342
345
347
350
351
350
350
351
351
350
350
352
352
354
354
353
356
357
357
358
357
360
360
360
362
362
362
363
365
366
365
366
364
361
364
376
379
371
364
365
365
365
365
337
360
675
677
673
346
351
347
344
345
346
349
351
357
362
372
380
389
400
408
408
406
401
390
372
355
343
333
327
323
322
322
323
322
323
323
322
323
326
326
328
328
330
332
331
330
330
329
328
325
325
324
325
325
323
322
323
322
323
322
323
324
326
325
325
322
325
333
341
337
325
326
323
327
327
315
282
516
675
673
328
307
322
315
316
318
322
326
332
339
346
356
366
379
392
399
398
389
380
361
339
325
313
309
307
306
306
308
312
311
312
313
315
322
325
326
331
334
333
331
334
332
330
331
329
329
329
329
331
329
331
330
331
331
333
334
335
335
334
336
335
346
355
354
344
337
336
338
340
340
311
371
675
676
576
299
338
328
329
331
335
339
343
350
355
363
373
387
400
411
415
414
403
389
369
349
332
324
321
318
317
317
318
320
321
319
321
321
327
328
330
333
332
333
332
332
333
331
331
331
330
330
330
329
331
331
331
329
331
334
332
332
333
338
353
355
346
337
333
335
337
335
316
296
593
676
675
352
316
323
317
321
321
326
331
334
337
346
355
368
379
393
399
395
389
378
360
338
320
309
302
299
297
299
299
301
303
302
303
305
305
307
308
308
313
311
313
314
313
311
311
312
311
310
311
311
310
311
311
313
314
315
315
316
328
338
329
319
320
322
322
326
311
287
553
676
665
298
316
325
319
322
326
329
333
337
345
353
364
