0,259
1,435
2,403
3,364
4,345
5,333
6,333
7,317
8,340
9,317
10,337
11,318
12,344
13,314
14,355
15,323
16,352
17,321
18,360
19,406
20,440
21,430
22,449
23,441
24,466
25,440
26,435
27,403
28,364
29,345
30,333
31,333
32,317
33,340
34,317
35,337
36,318
37,344
38,314
39,355
40,323
41,352
42,321
43,360
44,406
45,440
46,430
47,449
48,441
49,466
50,440
51,435
52,403
53,364
54,345
55,333
56,333
57,317
58,340
59,317
60,337
61,318
62,344
63,314
64,355
65,323
66,352
67,321
68,360
69,321
70,365
71,319
72,361
73,330
74,365
75,324
76,350
77,325
78,368
79,328
80,362
81,331
82,370
83,354
84,367
85,329
86,351
87,341
88,362
89,344
90,353
91,345
92,632
93,673
94,343
95,377
96,365
97,354
98,368
99,348
100,380
101,359
102,392
103,374
104,415
105,389
106,433
107,409
108,453
109,410
110,451
111,404
112,415
113,352
114,355
115,292
116,333
117,286
118,323
119,281
120,329
121,294
122,325
123,294
124,328
125,304
126,322
127,303
128,327
129,307
130,337
131,309
132,327
133,318
134,326
135,320
136,324
137,324
138,320
139,328
140,306
141,330
142,320
143,335
144,323
145,343
146,319
147,340
148,316
149,332
150,316
151,347
152,319
153,633
154,632
155,429
156,281
157,392
158,330
159,366
160,338
161,363
162,334
163,395
164,354
165,407
166,426
167,400
168,447
169,397
170,451
171,423
172,432
173,391
174,374
175,321
176,328
177,298
178,310
179,302
180,309
181,308
182,312
183,314
184,308
185,331
186,312
187,336
188,322
189,344
190,319
191,352
192,325
193,352
194,322
195,358
196,327
197,362
198,321
199,354
200,318
201,388
202,339
203,367
204,326
205,347
206,332
207,383
208,333
209,379
210,349
211,663
212,631
213,435
214,334
215,391
216,363
217,393
218,371
219,394
220,388
221,395
222,401
223,422
224,423
225,459
226,444
227,482
228,445
229,479
230,415
231,447
232,360
233,385
234,330
235,363
236,321
237,362
238,315
239,364
240,318
241,377
242,326
243,376
244,335
245,380
246,329
247,392
248,342
249,385
250,345
251,397
252,349
253,394
254,349
255,399
256,351
257,390
258,361
259,385
260,374
261,385
262,366
263,387
264,377
265,387
266,378
267,361
268,501
269,674
270,670
271,377
272,413
273,392
274,402
275,357
276,408
277,372
278,423
279,385
280,439
281,404
282,460
283,423
284,480
285,447
286,486
287,441
288,484
289,404
290,395
291,345
292,377
293,320
294,348
295,307
296,359
297,302
298,351
299,317
300,361
301,326
302,356
303,330
304,358
305,331
306,351
307,337
308,348
309,336
310,348
311,342
312,338
313,343
314,332
315,345
316,323
317,367
318,340
319,353
320,358
321,323
322,358
323,320
324,351
325,378
326,673
327,667
328,406
329,325
330,389
331,322
332,375
333,325
334,373
335,338
336,385
337,350
338,400
339,367
340,409
341,393
342,445
343,409
344,441
345,404
346,402
347,359
348,356
349,307
350,315
351,293
352,300
353,296
354,296
355,305
356,294
357,310
358,295
359,324
360,305
361,330
362,300
363,330
364,301
365,336
366,298
367,342
368,296
369,344
370,294
371,345
372,290
373,339
374,290
375,343
376,306
377,346
378,293
379,350
380,301
381,332
382,302
383,335
384,493
385,673
386,562
387,322
388,343
389,358
390,326
391,357
392,328
393,362
394,346
395,372
396,369
397,383
398,394
399,404
400,419
401,421
402,437
403,412
404,432
405,383
406,376
407,320
408,329
409,288
410,319
411,286
412,313
413,277
414,330
415,290
416,339
417,297
418,349
419,301
420,354
421,311
422,358
423,318
424,358
425,321
426,359
427,326
428,369
429,330
430,361
431,337
432,379
433,356
434,371
435,349
436,374
437,353
438,368
439,368
440,368
441,424
442,673
443,666
444,402
445,377
446,409
447,407
448,387
449,413
450,401
451,425
452,409
453,447
454,434
455,452
456,440
457,503
458,467
459,511
460,465
461,502
462,441
463,456
464,383
465,402
466,345
467,389
468,343
469,381
470,342
471,381
472,350
473,383
474,355
475,379
476,358
477,385
478,368
479,385
480,373
481,384
482,375
483,367
484,374
485,377
486,376
487,376
488,379
489,367
490,388
491,379
492,391
493,356
494,386
495,353
496,388
497,354
498,384
499,344
500,617
501,673
502,616
503,325
504,405
505,357
506,395
507,350
508,399
509,358
510,402
511,367
512,423
513,386
514,429
515,410
516,454
517,421
518,435
519,430
520,436
521,392
522,377
523,329
524,328
525,311
526,312
527,302
528,306
529,309
530,309
531,316
532,308
533,320
534,312
535,331
536,305
537,330
538,304
539,338
540,301
541,335
542,298
543,339
544,299
545,343
546,289
547,327
548,298
549,360
550,310
551,342
552,294
553,345
554,299
555,344
556,301
557,332
558,464
559,673
560,607
561,329
562,336
563,352
564,321
565,348
566,323
567,351
568,345
569,354
570,357
571,369
572,382
573,390
574,407
575,397
576,423
577,408
578,409
579,363
580,357
581,297
582,316
583,273
584,304
585,267
586,305
587,268
588,312
589,271
590,306
591,274
592,324
593,283
594,318
595,285
596,335
597,287
598,336
599,293
600,331
601,289
602,336
603,297
604,329
605,301
606,326
607,301
608,334
609,328
610,331
611,312
612,322
613,322
614,321
615,321
616,321
617,312
618,530
619,672
620,576
621,318
622,345
623,352
624,319
625,354
626,325
627,359
628,335
629,379
630,346
631,393
632,366
633,420
634,386
635,443
636,417
637,425
638,386
639,398
640,335
641,351
642,288
643,319
644,274
645,311
646,283
647,315
648,282
649,319
650,291
651,322
652,306
653,311
654,304
655,327
656,312
657,325
658,322
659,321
660,327
661,321
662,328
663,309
664,336
665,312
666,346
667,319
668,357
669,328
670,348
671,314
672,353
673,318
674,358
675,322
676,338
677,399
678,673
679,605
680,356
681,327
682,392
683,336
684,378
685,346
686,383
687,355
688,399
689,371
690,413
691,393
692,439
693,420
694,455
695,435
696,450
697,433
698,424
699,379
700,353
701,338
702,325
703,318
704,312
705,323
706,308
707,329
708,306
709,329
710,297
711,344
712,325
713,351
714,316
715,353
716,320
717,355
718,322
719,358
720,332
721,368
722,327
723,364
724,325
725,363
726,330
727,379
728,349
729,372
730,331
731,370
732,339
733,374
734,336
735,367
736,360
737,671
738,671
739,477
740,345
741,388
742,369
743,372
744,364
745,376
746,383
747,382
748,395
749,394
750,420
751,408
752,452
753,434
754,459
755,442
756,461
757,414
758,421
759,351
760,362
761,311
762,339
763,297
764,341
765,301
766,340
767,308
768,340
769,305
770,356
771,312
772,360
773,318
774,362
775,324
776,356
777,326
778,355
779,331
780,356
781,332
782,356
783,331
784,356
785,344
786,345
787,342
788,337
789,357
790,365
791,356
792,339
793,357
794,343
795,356
796,347
797,356
798,329
799,599
800,673
801,592
802,315
803,409
804,350
805,384
806,343
807,386
808,352
809,399
810,363
811,415
812,378
813,436
814,403
815,459
816,422
817,467
818,426
819,452
820,391
821,376
822,331
823,343
824,303
825,327
826,311
827,322
828,306
829,324
830,316
831,327
832,323
833,322
834,330
835,326
836,344
837,324
838,343
839,322
840,344
841,318
842,351
843,325
844,352
845,325
846,357
847,326
848,361
849,322
850,365
851,323
852,359
853,322
854,373
855,342
856,373
857,326
858,371
859,325
860,372
861,351
862,317
863,561
864,673
865,641
866,331
867,394
868,362
869,371
870,354
871,374
872,360
873,384
874,381
875,392
876,400
877,408
878,424
879,431
880,445
881,441
882,459
883,425
884,425
885,373
886,360
887,318
888,335
889,298
890,322
891,300
892,326
893,291
894,339
895,295
896,348
897,303
898,341
899,309
900,351
901,315
902,344
903,316
904,355
905,312
906,339
907,317
908,353
909,319
910,352
911,325
912,346
913,330
914,349
915,330
916,333
917,339
918,362
919,353
920,340
921,344
922,336
923,358
924,338
925,354
926,324
927,395
928,671
929,392
930,356
931,361
932,377
933,351
934,379
935,357
936,390
937,382
938,405
939,382
940,429
941,402
942,451
943,422
944,465
945,436
946,463
947,408
948,415
949,350
950,356
951,306
952,334
953,301
954,328
955,303
956,313
957,313
958,330
959,321
960,328
961,302
962,329
963,335
964,337
965,335
966,333
967,349
968,324
969,350
970,332
971,350
972,322
973,360
974,327
975,357
976,329
977,356
978,320
979,366
980,340
981,387
982,328
983,365
984,325
985,376
986,332
987,375
988,325
989,355
990,575
991,674
992,571
993,349
994,366
995,389
996,346
997,379
998,355
999,387
1000,371
1001,393
1002,392
1003,405
1004,414
1005,435
1006,433
1007,451
1008,456
1009,445
1010,441
1011,409
1012,386
1013,336
1014,338
1015,304
1016,326
1017,300
1018,337
1019,303
1020,339
1021,312
1022,344
1023,312
1024,352
1025,315
1026,359
1027,315
1028,362
1029,322
1030,362
1031,323
1032,347
1033,326
1034,367
1035,331
1036,366
1037,332
1038,359
1039,341
1040,360
1041,332
1042,363
1043,345
1044,367
1045,364
1046,371
1047,344
1048,361
1049,357
1050,359
1051,362
1052,346
1053,370
1054,652
1055,674
1056,549
1057,365
1058,372
1059,393
1060,360
1061,373
1062,344
1063,396
1064,368
1065,413
1066,379
1067,425
1068,409
1069,450
1070,424
1071,465
1072,438
1073,475
1074,419
1075,430
1076,366
1077,369
1078,340
1079,302
1080,331
1081,304
1082,325
1083,304
1084,342
1085,319
1086,338
1087,322
1088,345
1089,328
1090,345
1091,337
1092,339
1093,341
1094,338
1095,341
1096,335
1097,349
1098,329
1099,351
1100,329
1101,355
1102,328
1103,358
1104,331
1105,354
1106,337
1107,372
1108,347
1109,366
1110,325
1111,368
1112,327
1113,365
1114,329
1115,350
1116,349
1117,672
1118,672
1119,488
1120,321
1121,394
1122,345
1123,370
1124,342
1125,377
1126,354
1127,378
1128,368
1129,403
1130,388
1131,422
1132,419
1133,441
1134,439
1135,448
1136,445
1137,429
1138,399
1139,369
1140,342
1141,316
1142,313
1143,296
1144,317
1145,283
1146,323
1147,295
1148,337
1149,294
1150,340
1151,293
1152,350
1153,301
1154,352
1155,304
1156,355
1157,310
1158,339
1159,309
1160,332
1161,314
1162,357
1163,319
1164,345
1165,359
1166,315
1167,352
1168,338
1169,372
1170,330
1171,353
1172,334
1173,352
1174,345
1175,350
1176,334
1177,335
1178,599
1179,673
1180,531
1181,322
1182,381
1183,368
1184,367
1185,359
1186,378
1187,370
1188,392
1189,381
1190,393
1191,389
1192,440
1193,416
1194,470
1195,428
1196,483
1197,427
1198,469
1199,387
1200,408
1201,330
1202,352
1203,307
1204,340
1205,296
1206,341
1207,304
1208,341
1209,309
1210,345
1211,309
1212,349
1213,321
1214,350
1215,333
1216,349
1217,327
1218,354
1219,342
1220,337
1221,350
1222,348
1223,345
1224,345
1225,350
1226,322
1227,356
1228,345
1229,350
1230,333
1231,367
1232,360
1233,359
1234,328
1235,358
1236,332
1237,371
1238,334
1239,369
1240,324
1241,635
1242,673
1243,609
1244,328
1245,399
1246,350
1247,386
1248,347
1249,391
1250,361
1251,401
1252,365
1253,409
1254,391
1255,429
1256,412
1257,449
1258,435
1259,459
1260,447
1261,450
1262,399
1263,392
1264,347
1265,332
1266,321
1267,322
1268,299
1269,320
1270,314
1271,334
1272,312
1273,338
1274,320
1275,346
1276,347
1277,320
1278,350
1279,325
1280,351
1281,321
1282,355
1283,319
1284,349
1285,321
1286,361
1287,320
1288,355
1289,326
1290,353
1291,338
1292,370
1293,341
1294,362
1295,368
1296,325
1297,366
1298,335
1299,348
1300,385
1301,673
1302,672
1303,446
1304,346
1305,381
1306,356
1307,355
1308,362
1309,365
1310,374
1311,374
1312,390
1313,387
1314,411
1315,401
1316,434
1317,414
1318,464
1319,430
1320,457
1321,410
1322,421
1323,337
1324,358
1325,301
1326,334
1327,284
1328,335
1329,289
1330,330
1331,293
1332,340
1333,298
1334,342
1335,301
1336,345
1337,313
1338,344
1339,309
1340,356
1341,317
1342,342
1343,321
1344,351
1345,322
1346,351
1347,332
1348,347
1349,332
1350,345
1351,337
1352,342
1353,343
1354,346
1355,341
1356,368
1357,348
1358,353
1359,340
1360,360
1361,337
1362,366
1363,329
1364,352
1365,426
1366,674
1367,407
1368,336
1369,401
1370,335
1371,389
1372,342
1373,386
1374,349
1375,401
1376,363
1377,420
1378,380
1379,425
1380,416
1381,461
1382,425
1383,471
1384,426
1385,446
1386,384
1387,369
1388,333
1389,328
1390,310
1391,315
1392,308
1393,309
1394,315
1395,325
1396,322
1397,328
1398,328
1399,334
1400,326
1401,341
1402,328
1403,343
1404,320
1405,353
1406,322
1407,357
1408,321
1409,352
1410,318
1411,360
1412,330
1413,363
1414,330
1415,371
1416,333
1417,388
1418,336
1419,369
1420,338
1421,378
1422,332
1423,377
1424,340
1425,364
1426,493
1427,674
1428,622
1429,358
1430,373
1431,407
1432,377
1433,393
1434,382
1435,404
1436,404
1437,410
1438,411
1439,429
1440,441
1441,447
1442,469
1443,469
1444,488
1445,478
1446,484
1447,424
1448,436
1449,379
1450,393
1451,344
1452,382
1453,331
1454,381
1455,340
1456,388
1457,346
1458,395
1459,348
1460,401
1461,361
1462,399
1463,369
1464,402
1465,375
1466,404
1467,376
1468,400
1469,377
1470,407
1471,379
1472,399
1473,372
1474,400
1475,371
1476,396
1477,373
1478,395
1479,401
1480,393
1481,381
1482,380
1483,385
1484,376
1485,389
1486,373
1487,365
1488,490
1489,674
1490,673
1491,428
1492,375
1493,427
1494,350
1495,412
1496,344
1497,429
1498,346
1499,448
1500,366
1501,456
1502,384
1503,479
1504,404
1505,496
1506,423
1507,495
1508,424
1509,460
1510,374
1511,390
1512,312
1513,345
1514,297
1515,332
1516,299
1517,332
1518,304
1519,315
1520,312
1521,326
1522,328
1523,314
1524,335
1525,297
1526,343
1527,288
1528,349
1529,295
1530,350
1531,302
1532,341
1533,304
1534,340
1535,311
1536,339
1537,305
1538,338
1539,317
1540,364
1541,305
1542,343
1543,301
1544,348
1545,304
1546,348
1547,287
1548,331
1549,505
1550,674
1551,610
1552,327
1553,329
1554,359
1555,307
1556,357
1557,319
1558,352
1559,335
1560,363
1561,347
1562,381
1563,372
1564,399
1565,398
1566,418
1567,415
1568,424
1569,406
1570,380
1571,353
1572,306
1573,303
1574,266
1575,279
1576,264
1577,290
1578,257
1579,287
1580,257
1581,287
1582,254
1583,309
1584,268
1585,310
1586,278
1587,313
1588,269
1589,316
1590,272
1591,320
1592,271
1593,315
1594,278
1595,308
1596,274
1597,326
1598,299
1599,318
1600,284
1601,319
1602,289
1603,320
1604,296
1605,326
1606,292
1607,368
1608,658
1609,601
1610,327
1611,311
1612,346
1613,326
1614,338
1615,324
1616,352
1617,326
1618,374
1619,348
1620,393
1621,365
1622,420
1623,395
1624,441
1625,409
1626,453
1627,406
1628,429
1629,350
1630,352
1631,296
1632,324
1633,278
1634,318
1635,277
1636,324
1637,282
1638,329
1639,288
1640,335
1641,299
1642,343
1643,307
1644,348
1645,321
1646,340
1647,328
1648,353
1649,336
1650,353
1651,340
1652,354
1653,354
1654,356
1655,349
1656,341
1657,375
1658,368
1659,383
1660,352
1661,377
1662,356
1663,390
1664,366
1665,389
1666,343
1667,538
1668,674
1669,673
1670,385
1671,420
1672,385
1673,415
1674,374
1675,426
1676,385
1677,433
1678,402
1679,444
1680,416
1681,474
1682,444
1683,498
1684,466
1685,505
1686,480
1687,501
1688,443
1689,444
1690,383
1691,381
1692,351
1693,364
1694,345
1695,365
1696,353
1697,354
1698,358
1699,357
1700,367
1701,359
1702,376
1703,347
1704,382
1705,345
1706,381
1707,350
1708,385
1709,357
1710,384
1711,350
1712,388
1713,345
1714,387
1715,344
1716,393
1717,363
1718,382
1719,339
1720,387
1721,353
1722,391
1723,349
1724,376
1725,326
1726,501
1727,673
1728,673
1729,377
1730,397
1731,364
1732,380
1733,350
1734,378
1735,364
1736,384
1737,376
1738,396
1739,394
1740,410
1741,418
1742,434
1743,444
1744,433
1745,454
1746,429
1747,417
1748,371
1749,358
1750,314
1751,317
1752,281
1753,318
1754,281
1755,321
1756,275
1757,282
1758,329
1759,291
1760,330
1761,289
1762,339
1763,292
1764,344
1765,294
1766,338
1767,293
1768,343
1769,297
1770,325
1771,304
1772,336
1773,300
1774,330
1775,305
1776,344
1777,326
1778,321
1779,317
1780,330
1781,316
1782,327
1783,317
1784,329
1785,308
1786,516
1787,673
1788,591
1789,305
1790,332
1791,361
1792,328
1793,346
1794,329
1795,361
1796,337
1797,370
1798,343
1799,392
1800,365
1801,425
1802,397
1803,452
1804,407
1805,446
1806,402
1807,424
1808,341
1809,355
1810,287
1811,318
1812,275
1813,318
1814,282
1815,293
1816,285
1817,321
1818,290
1819,326
1820,290
1821,330
1822,309
1823,327
1824,316
1825,325
1826,322
1827,328
1828,331
1829,328
1830,332
1831,329
1832,335
1833,320
1834,343
1835,339
1836,364
1837,317
1838,359
1839,312
1840,362
1841,319
1842,361
1843,315
1844,381
1845,644
1846,672
1847,401
1848,345
1849,354
1850,378
1851,329
1852,388
1853,332
1854,401
1855,359
1856,409
1857,374
1858,420
1859,406
1860,442
1861,426
1862,486
1863,464
1864,458
1865,420
1866,396
1867,355
1868,343
1869,312
1870,316
1871,313
1872,309
1873,321
1874,308
1875,322
1876,299
1877,324
1878,302
1879,352
1880,310
1881,347
1882,310
1883,358
1884,316
1885,359
1886,308
1887,362
1888,312
1889,351
1890,318
1891,363
1892,317
1893,359
1894,306
1895,380
1896,334
1897,371
1898,320
1899,360
1900,367
1901,331
1902,365
1903,304
1904,510
1905,673
1906,670
1907,353
1908,381
1909,356
1910,363
1911,356
1912,363
1913,368
1914,376
1915,384
1916,383
1917,399
1918,391
1919,427
1920,406
1921,463
1922,431
1923,470
1924,424
1925,441
1926,362
1927,376
1928,306
1929,334
1930,299
1931,324
1932,284
1933,341
1934,288
1935,319
1936,290
1937,349
1938,303
1939,350
1940,306
1941,347
1942,312
1943,347
1944,311
1945,349
1946,314
1947,344
1948,318
1949,336
1950,319
1951,338
1952,318
1953,325
1954,345
1955,359
1956,333
1957,340
1958,345
1959,330
1960,344
1961,315
1962,345
1963,315
1964,565
1965,673
1966,612
1967,302
1968,387
1969,338
1970,369
1971,337
1972,379
1973,338
1974,391
1975,345
1976,402
1977,368
1978,424
1979,398
1980,461
1981,427
1982,471
1983,424
1984,461
1985,381
1986,399
1987,317
1988,331
1989,295
1990,319
1991,293
1992,300
1993,293
1994,320
1995,300
1996,321
1997,311
1998,308
1999,323
2000,325
2001,323
2002,311
2003,334
2004,315
2005,332
2006,316
2007,347
2008,314
2009,353
2010,319
2011,345
2012,309
2013,351
2014,311
2015,375
2016,321
2017,343
2018,303
2019,362
2020,307
2021,371
2022,319
2023,334
2024,397
2025,673
2026,634
2027,371
2028,332
2029,389
2030,336
2031,373
2032,342
2033,373
2034,357
2035,389
2036,374
2037,399
2038,396
2039,415
2040,423
2041,442
2042,441
2043,438
2044,443
2045,415
2046,386
2047,342
2048,338
2049,306
2050,319
2051,297
2052,320
2053,292
2054,321
2055,286
2056,331
2057,290
2058,343
2059,293
2060,349
2061,306
2062,354
2063,293
2064,351
2065,319
2066,350
2067,312
2068,363
2069,312
2070,359
2071,314
2072,352
2073,321
2074,361
2075,323
2076,359
2077,319
2078,359
2079,346
2080,360
2081,358
2082,341
2083,354
2084,355
2085,356
2086,345
2087,356
2088,329
2089,392
2090,672
2091,673
2092,455
2093,367
2094,369
2095,382
2096,346
2097,375
2098,361
2099,391
2100,359
2101,414
2102,361
2103,449
2104,378
2105,460
2106,396
2107,494
2108,418
2109,491
2110,401
2111,448
2112,336
2113,366
2114,309
2115,331
2116,294
2117,334
2118,303
2119,328
2120,307
2121,337
2122,312
2123,330
2124,323
2125,336
2126,326
2127,333
2128,342
2129,325
2130,354
2131,320
2132,355
2133,318
2134,359
2135,314
2136,359
2137,322
2138,364
2139,328
2140,358
2141,327
2142,360
2143,327
2144,371
2145,341
2146,381
2147,329
2148,353
2149,325
2150,373
2151,320
2152,348
2153,312
2154,395
2155,653
2156,673
2157,489
2158,364
2159,361
2160,380
2161,346
2162,383
2163,352
2164,385
2165,366
2166,398
2167,384
2168,414
2169,408
2170,437
2171,435
2172,458
2173,462
2174,453
2175,445
2176,400
2177,380
2178,330
2179,336
2180,300
2181,322
2182,293
2183,315
2184,298
2185,330
2186,300
2187,335
2188,303
2189,333
2190,304
2191,348
2192,312
2193,350
2194,316
2195,353
2196,318
2197,356
2198,322
2199,354
2200,324
2201,362
2202,324
2203,364
2204,321
2205,356
2206,334
2207,369
2208,358
2209,361
2210,338
2211,363
2212,349
2213,358
2214,359
2215,356
2216,330
2217,562
2218,673
2219,593
2220,345
2221,391
2222,396
2223,366
2224,393
2225,367
2226,411
2227,375
2228,424
2229,406
2230,437
2231,416
2232,478
2233,451
2234,491
2235,459
2236,497
2237,442
2238,462
2239,384
2240,391
2241,333
2242,374
2243,312
2244,364
2245,323
2246,360
2247,328
2248,359
2249,329
2250,369
2251,345
2252,369
2253,350
2254,370
2255,354
2256,379
2257,364
2258,366
2259,374
2260,373
2261,374
2262,369
2263,374
2264,366
2265,380
2266,364
2267,382
2268,365
2269,386
2270,351
2271,400
2272,374
2273,408
2274,366
2275,383
2276,357
2277,395
2278,358
2279,396
2280,352
2281,369
2282,554
2283,674
2284,662
2285,388
2286,379
2287,404
2288,365
2289,393
2290,369
2291,393
2292,375
2293,399
2294,398
2295,420
2296,413
2297,445
2298,440
2299,464
2300,460
2301,467
2302,452
2303,424
2304,401
2305,343
2306,338
2307,312
2308,316
2309,300
2310,323
2311,307
2312,326
2313,295
2314,336
2315,307
2316,333
2317,310
2318,338
2319,308
2320,333
2321,302
2322,338
2323,309
2324,346
2325,298
2326,334
2327,312
2328,347
2329,312
2330,345
2331,317
2332,348
2333,315
2334,340
2335,316
2336,351
2337,325
2338,331
2339,323
2340,337
2341,331
2342,336
2343,334
2344,329
2345,304
2346,673
2347,643
2348,334
2349,352
2350,358
2351,335
2352,357
2353,332
2354,364
2355,342
2356,382
2357,355
2358,399
2359,373
2360,430
2361,395
2362,444
2363,414
2364,458
2365,414
2366,428
2367,342
2368,353
2369,296
2370,323
2371,268
2372,312
2373,271
2374,311
2375,276
2376,306
2377,276
2378,301
2379,292
2380,312
2381,293
2382,322
2383,304
2384,318
2385,311
2386,320
2387,311
2388,321
2389,319
2390,308
2391,323
2392,308
2393,323
2394,313
2395,330
2396,302
2397,350
2398,326
2399,351
2400,309
2401,349
2402,308
2403,346
2404,311
2405,333
2406,290
2407,398
2408,669
2409,645
2410,354
2411,348
2412,339
2413,369
2414,327
2415,370
2416,344
2417,382
2418,350
2419,400
2420,377
2421,399
2422,397
2423,428
2424,420
2425,457
2426,429
2427,441
2428,422
2429,390
2430,348
2431,328
2432,321
2433,305
2434,306
2435,303
2436,312
2437,290
2438,320
2439,303
2440,325
2441,308
2442,327
2443,306
2444,337
2445,309
2446,346
2447,313
2448,353
2449,314
2450,343
2451,313
2452,356
2453,315
2454,344
2455,320
2456,358
2457,319
2458,357
2459,349
2460,320
2461,361
2462,351
2463,360
2464,327
2465,357
2466,331
2467,353
2468,345
2469,351
2470,312
2471,465
2472,673
2473,668
2474,372
2475,361
2476,375
2477,352
2478,368
2479,355
2480,372
2481,367
2482,382
2483,365
2484,399
2485,384
2486,428
2487,419
2488,441
2489,428
2490,470
2491,425
2492,445
2493,378
2494,369
2495,306
2496,348
2497,292
2498,334
2499,293
2500,326
2501,294
2502,323
2503,303
2504,328
2505,309
2506,346
2507,315
2508,341
2509,319
2510,343
2511,315
2512,348
2513,326
2514,342
2515,329
2516,340
2517,336
2518,323
2519,340
2520,327
2521,351
2522,328
2523,345
2524,335
2525,365
2526,344
2527,359
2528,331
2529,358
2530,333
2531,347
2532,333
2533,363
2534,308
2535,554
2536,671
2537,556
2538,299
2539,391
2540,353
2541,371
2542,344
2543,380
2544,356
2545,392
2546,368
2547,392
2548,394
2549,435
2550,415
2551,461
2552,439
2553,468
2554,451
2555,441
2556,421
2557,393
2558,357
2559,331
2560,326
2561,317
2562,323
2563,313
2564,329
2565,308
2566,337
2567,319
2568,339
2569,300
2570,346
2571,319
2572,346
2573,320
2574,349
2575,327
2576,358
2577,329
2578,352
2579,325
2580,347
2581,324
2582,372
2583,329
2584,374
2585,326
2586,371
2587,322
2588,371
2589,342
2590,386
2591,331
2592,370
2593,342
2594,361
2595,349
2596,360
2597,338
2598,428
2599,673
2600,672
2601,423
2602,376
2603,384
2604,371
2605,371
2606,365
2607,381
2608,377
2609,400
2610,388
2611,412
2612,399
2613,436
2614,422
2615,465
2616,430
2617,481
2618,429
2619,456
2620,373
2621,400
2622,319
2623,352
2624,292
2625,342
2626,286
2627,343
2628,297
2629,340
2630,311
2631,347
2632,313
2633,348
2634,321
2635,351
2636,322
2637,350
2638,331
2639,352
2640,329
2641,344
2642,336
2643,341
2644,343
2645,352
2646,342
2647,342
2648,355
2649,336
2650,351
2651,357
2652,378
2653,346
2654,366
2655,345
2656,368
2657,337
2658,387
2659,344
2660,350
2661,493
2662,674
2663,671
2664,386
2665,368
2666,393
2667,352
2668,397
2669,364
2670,403
2671,372
2672,428
2673,397
2674,437
2675,411
2676,453
2677,438
2678,484
2679,456
2680,482
2681,458
2682,464
2683,406
2684,393
2685,359
2686,347
2687,335
2688,348
2689,350
2690,348
2691,352
2692,354
2693,357
2694,354
2695,372
2696,355
2697,378
2698,361
2699,381
2700,353
2701,384
2702,351
2703,370
2704,352
2705,391
2706,351
2707,388
2708,347
2709,382
2710,355
2711,386
2712,346
2713,397
2714,367
2715,399
2716,356
2717,382
2718,350
2719,388
2720,359
2721,387
2722,348
2723,380
2724,616
2725,672
2726,495
2727,351
2728,386
2729,388
2730,371
2731,387
2732,385
2733,389
2734,397
2735,393
2736,409
2737,409
2738,433
2739,420
2740,467
2741,444
2742,469
2743,441
2744,454
2745,392
2746,380
2747,328
2748,335
2749,296
2750,323
2751,289
2752,315
2753,291
2754,329
2755,293
2756,338
2757,292
2758,336
2759,303
2760,338
2761,304
2762,344
2763,316
2764,322
2765,319
2766,331
2767,311
2768,339
2769,318
2770,331
2771,319
2772,333
2773,318
2774,306
2775,334
2776,344
2777,318
2778,334
2779,324
2780,332
2781,324
2782,337
2783,300
2784,381
2785,654
2786,672
2787,396
2788,351
2789,331
2790,358
2791,317
2792,357
2793,326
2794,363
2795,333
2796,376
2797,355
2798,395
2799,369
2800,422
2801,391
2802,438
2803,399
2804,437
2805,384
2806,389
2807,325
2808,327
2809,283
2810,302
2811,274
2812,293
2813,275
2814,293
2815,285
2816,301
2817,286
2818,291
2819,298
2820,294
2821,303
2822,300
2823,311
2824,296
2825,315
2826,302
2827,319
2828,290
2829,331
2830,291
2831,333
2832,293
2833,333
2834,296
2835,327
2836,290
2837,351
2838,316
2839,337
2840,295
2841,336
2842,304
2843,341
2844,306
2845,334
2846,292
2847,562
2848,672
2849,606
2850,299
2851,376
2852,327
2853,351
2854,326
2855,356
2856,341
2857,361
2858,356
2859,375
2860,378
2861,392
2862,404
2863,415
2864,429
2865,429
2866,437
2867,429
2868,414
2869,360
2870,355
2871,298
2872,316
2873,289
2874,315
2875,285
2876,321
2877,287
2878,327
2879,295
2880,333
2881,294
2882,341
2883,298
2884,352
2885,291
2886,343
2887,308
2888,354
2889,315
2890,349
2891,321
2892,351
2893,322
2894,351
2895,325
2896,354
2897,326
2898,360
2899,351
2900,361
2901,332
2902,352
2903,310
2904,344
2905,354
2906,349
2907,347
2908,422
2909,673
2910,647
2911,382
2912,353
2913,398
2914,371
2915,393
2916,360
2917,405
2918,375
2919,419
2920,398
2921,440
2922,411
2923,460
2924,416
2925,476
2926,455
2927,497
2928,455
2929,473
2930,407
2931,407
2932,352
2933,374
2934,331
2935,361
2936,332
2937,359
2938,341
2939,356
2940,349
2941,367
2942,356
2943,368
2944,365
2945,372
2946,368
2947,380
2948,380
2949,372
2950,381
2951,375
2952,388
2953,367
2954,391
2955,370
2956,390
2957,362
2958,390
2959,371
2960,409
2961,373
2962,398
2963,362
2964,401
2965,366
2966,403
2967,366
2968,378
2969,442
2970,674
2971,673
2972,488
2973,376
2974,422
2975,375
2976,405
2977,379
2978,409
2979,382
2980,423
2981,400
2982,420
2983,417
2984,444
2985,450
2986,471
2987,454
2988,493
2989,468
2990,445
2991,415
2992,377
2993,366
2994,336
2995,337
2996,320
2997,341
2998,313
2999,337
3000,308
3001,360
3002,314
3003,314
3004,371
3005,314
3006,356
3007,326
3008,364
3009,321
3010,357
3011,327
3012,360
3013,322
3014,365
3015,321
3016,365
3017,301
3018,370
3019,336
3020,383
3021,317
3022,361
3023,329
3024,350
3025,328
3026,364
3027,328
3028,351
3029,641
3030,674
3031,532
3032,330
3033,372
3034,351
3035,351
3036,347
3037,361
3038,346
3039,376
3040,360
3041,388
3042,375
3043,414
3044,385
3045,441
3046,405
3047,447
3048,403
3049,431
3050,365
3051,377
3052,310
3053,327
3054,279
3055,319
3056,273
3057,315
3058,276
3059,318
3060,285
3061,322
3062,287
3063,317
3064,291
3065,327
3066,292
3067,326
3068,299
3069,326
3070,308
3071,322
3072,309
3073,324
3074,311
3075,319
3076,314
3077,310
3078,330
3079,330
3080,327
3081,299
3082,325
3083,313
3084,340
3085,311
3086,338
3087,297
3088,402
3089,671
3090,632
3091,320
3092,338
3093,333
3094,354
3095,321
3096,365
3097,327
3098,367
