0,328
1,333
2,338
3,345
4,349
5,360
6,370
7,381
8,386
9,386
10,379
11,370
12,330
13,333
14,315
15,312
16,615
17,676
18,654
19,287
20,330
21,322
22,317
23,320
24,325
25,328
26,333
27,338
28,345
29,349
30,360
31,370
32,381
33,386
34,386
35,379
36,370
37,330
38,333
39,315
40,312
41,615
42,676
43,654
44,287
45,330
46,322
47,317
48,320
49,325
50,328
51,333
52,338
53,345
54,349
55,360
56,370
57,381
58,386
59,386
60,379
61,370
62,325
63,314
64,307
65,303
66,300
67,304
68,303
69,305
70,304
71,307
72,307
73,306
74,309
75,312
76,311
77,310
78,310
79,312
80,310
81,310
82,309
83,309
84,311
85,308
86,309
87,307
88,309
89,307
90,306
91,308
92,320
93,326
94,311
95,307
96,309
97,309
98,312
99,309
100,287
101,357
102,674
103,673
104,402
105,275
106,316
107,304
108,308
109,309
110,313
111,320
112,325
113,330
114,338
115,347
116,361
117,370
118,381
119,387
120,383
121,377
122,365
123,352
124,333
125,318
126,308
127,304
128,300
129,302
130,301
131,305
132,305
133,309
134,310
135,311
136,313
137,315
138,317
139,321
140,320
141,321
142,325
143,328
144,324
145,327
146,327
147,328
148,322
149,324
150,335
151,343
152,328
153,326
154,327
155,329
156,331
157,332
158,317
159,315
160,625
161,674
162,525
163,281
164,343
165,335
166,334
167,337
168,342
169,346
170,353
171,358
172,366
173,372
174,386
175,398
176,408
177,411
178,413
179,403
180,392
181,376
182,359
183,342
184,332
185,323
186,321
187,320
188,321
189,322
190,323
191,326
192,327
193,330
194,330
195,334
196,335
197,338
198,337
199,340
200,339
201,339
202,338
203,339
204,337
205,337
206,336
207,335
208,332
209,340
210,348
211,351
212,335
213,338
214,339
215,342
216,339
217,340
218,310
219,438
220,675
221,674
222,372
223,323
224,343
225,331
226,333
227,339
228,341
229,348
230,350
231,356
232,362
233,372
234,384
235,395
236,402
237,408
238,405
239,394
240,384
241,367
242,345
243,329
244,319
245,312
246,312
247,307
248,310
249,311
250,315
251,313
252,318
253,314
254,316
255,317
256,320
257,319
258,321
259,319
260,321
261,321
262,318
263,320
264,321
265,316
266,317
267,319
268,331
269,330
270,319
271,318
272,318
273,321
274,319
275,319
276,289
277,420
278,674
279,620
280,304
281,302
282,328
283,320
284,320
285,327
286,334
287,339
288,343
289,353
290,356
291,367
292,381
293,395
294,404
295,409
296,404
297,393
298,381
299,364
300,343
301,332
302,321
303,319
304,316
305,315
306,316
307,318
308,319
309,318
310,325
311,326
312,330
313,330
314,334
315,333
316,336
317,335
318,337
319,336
320,337
321,335
322,334
323,329
324,337
325,346
326,348
327,333
328,335
329,335
330,338
331,338
332,338
333,313
334,412
335,674
336,672
337,366
338,319
339,345
340,333
341,334
342,336
343,341
344,346
345,351
346,355
347,363
348,369
349,382
350,394
351,402
352,405
353,404
354,395
355,381
356,360
357,346
358,330
359,320
360,314
361,313
362,309
363,311
364,313
365,316
366,316
367,318
368,319
369,320
370,320
371,322
372,323
373,323
374,323
375,321
376,321
377,322
378,321
379,320
380,320
381,318
382,321
383,318
384,315
385,313
386,322
387,333
388,330
389,316
390,320
391,319
392,320
393,320
394,318
395,290
396,445
397,675
398,673
399,327
400,306
401,322
402,311
403,313
404,320
405,321
406,327
407,330
408,338
409,345
410,354
411,364
412,377
413,383
414,389
415,385
416,379
417,369
418,353
419,337
420,321
421,312
422,306
423,306
424,303
425,307
426,307
427,311
428,313
429,315
430,315
431,318
432,315
433,317
434,317
435,317
436,317
437,316
438,316
439,317
440,314
441,315
442,317
443,317
444,315
445,316
446,317
447,314
448,311
449,316
450,330
451,333
452,314
453,318
454,318
455,317
456,318
457,316
458,290
459,412
460,675
461,668
462,329
463,299
464,321
465,311
466,318
467,320
468,323
469,327
470,334
471,338
472,346
473,354
474,367
475,378
476,392
477,391
478,392
479,381
480,374
481,357
482,340
483,326
484,314
485,309
486,305
487,306
488,309
489,310
490,312
491,313
492,318
493,319
494,322
495,325
496,327
497,329
498,329
499,331
500,331
501,332
502,331
503,332
504,332
505,330
506,331
507,341
508,349
509,342
510,336
511,337
512,338
513,342
514,340
515,332
516,305
517,523
518,675
519,632
520,295
521,339
522,344
523,339
524,342
525,346
526,350
527,356
528,360
529,367
530,377
531,384
532,395
533,406
534,417
535,416
536,410
537,398
538,387
539,365
540,350
541,336
542,330
543,325
544,323
545,323
546,326
547,325
548,329
549,329
550,331
551,331
552,334
553,334
554,339
555,338
556,339
557,336
558,339
559,336
560,336
561,335
562,333
563,332
564,334
565,334
566,334
567,329
568,328
569,333
570,344
571,348
572,331
573,331
574,332
575,331
576,332
577,329
578,303
579,428
580,675
581,674
582,370
583,312
584,334
585,325
586,325
587,328
588,333
589,336
590,339
591,349
592,355
593,362
594,373
595,383
596,394
597,398
598,395
599,389
600,378
601,363
602,345
603,330
604,319
605,314
606,314
607,310
608,313
609,314
610,317
611,319
612,321
613,320
614,325
615,323
616,326
617,325
618,328
619,324
620,327
621,325
622,325
623,324
624,325
625,324
626,325
627,324
628,322
629,319
630,328
631,340
632,337
633,327
634,326
635,329
636,327
637,328
638,327
639,298
640,443
641,675
642,674
643,352
644,308
645,330
646,319
647,319
648,322
649,326
650,331
651,337
652,340
653,350
654,359
655,369
656,378
657,385
658,389
659,386
660,374
661,366
662,351
663,334
664,319
665,310
666,303
667,305
668,302
669,304
670,305
671,309
672,308
673,311
674,311
675,314
676,314
677,316
678,317
679,315
680,319
681,317
682,317
683,317
684,318
685,317
686,317
687,319
688,321
689,316
690,316
691,316
692,329
693,337
694,326
695,322
696,323
697,324
698,328
699,328
700,312
701,322
702,655
703,674
704,501
705,279
706,340
707,332
708,329
709,333
710,338
711,342
712,350
713,355
714,362
715,370
716,381
717,392
718,401
719,407
720,406
721,400
722,389
723,378
724,360
725,347
726,335
727,330
728,326
729,328
730,328
731,331
732,331
733,335
734,335
735,341
736,341
737,345
738,342
739,345
740,343
741,345
742,342
743,341
744,342
745,341
746,341
747,339
748,338
749,340
750,336
751,333
752,335
753,345
754,354
755,339
756,335
757,336
758,338
759,337
760,337
761,322
762,325
763,623
764,675
765,615
766,291
767,339
768,331
769,327
770,331
771,333
772,339
773,342
774,347
775,354
776,362
777,369
778,381
779,389
780,398
781,395
782,388
783,379
784,367
785,352
786,337
787,325
788,319
789,316
790,315
791,317
792,318
793,319
794,321
795,324
796,323
797,323
798,323
799,326
800,322
801,325
802,322
803,322
804,319
805,323
806,318
807,320
808,319
809,316
810,323
811,317
812,312
813,317
814,328
815,335
816,318
817,314
818,315
819,320
820,322
821,319
822,295
823,339
824,673
825,674
826,443
827,275
828,326
829,314
830,314
831,318
832,323
833,326
834,335
835,341
836,347
837,354
838,370
839,381
840,393
841,398
842,396
843,384
844,377
845,359
846,348
847,334
848,324
849,317
850,319
851,318
852,319
853,319
854,322
855,322
856,326
857,330
858,333
859,335
860,335
861,338
862,337
863,340
864,338
865,338
866,334
867,334
868,338
869,337
870,333
871,331
872,332
873,343
874,354
875,338
876,334
877,336
878,338
879,339
880,336
881,326
882,324
883,592
884,674
885,571
886,293
887,341
888,332
889,329
890,329
891,334
892,337
893,343
894,347
895,353
896,357
897,370
898,379
899,389
900,394
901,394
902,387
903,376
904,363
905,347
906,333
907,321
908,317
909,311
910,315
911,310
912,316
913,316
914,317
915,322
916,325
917,322
918,325
919,324
920,326
921,324
922,327
923,325
924,325
925,323
926,325
927,324
928,325
929,320
930,319
931,328
932,342
933,331
934,323
935,322
936,328
937,326
938,329
939,319
940,302
941,533
942,675
943,644
944,287
945,331
946,324
947,316
948,317
949,326
950,328
951,333
952,336
953,344
954,348
955,360
956,368
957,379
958,386
959,384
960,378
961,370
962,358
963,345
964,330
965,321
966,313
967,308
968,306
969,314
970,312
971,315
972,319
973,320
974,322
975,324
976,325
977,324
978,328
979,325
980,327
981,325
982,325
983,323
984,326
985,325
986,322
987,317
988,323
989,334
990,339
991,320
992,323
993,321
994,325
995,321
996,323
997,297
998,380
999,675
1000,675
1001,439
1002,291
1003,323
1004,314
1005,312
1006,314
1007,319
1008,322
1009,328
1010,335
1011,339
1012,349
1013,360
1014,367
1015,374
1016,374
1017,369
1018,360
1019,353
1020,341
1021,331
1022,318
1023,314
1024,309
1025,309
1026,310
1027,312
1028,312
1029,318
1030,316
1031,321
1032,322
1033,327
1034,325
1035,326
1036,327
1037,327
1038,327
1039,324
1040,325
1041,325
1042,325
1043,322
1044,322
1045,326
1046,341
1047,343
1048,328
1049,328
1050,330
1051,330
1052,331
1053,328
1054,300
1055,408
1056,675
1057,676
1058,445
1059,293
1060,330
1061,315
1062,318
1063,320
1064,327
1065,329
1066,335
1067,341
1068,351
1069,355
1070,367
1071,374
1072,379
1073,381
1074,375
1075,362
1076,357
1077,349
1078,339
1079,329
1080,326
1081,322
1082,320
1083,323
1084,321
1085,324
1086,324
1087,328
1088,328
1089,330
1090,329
1091,332
1092,330
1093,329
1094,325
1095,324
1096,322
1097,324
1098,319
1099,316
1100,318
1101,332
1102,332
1103,320
1104,316
1105,318
1106,318
1107,318
1108,318
1109,298
1110,372
1111,674
1112,675
1113,404
1114,273
1115,322
1116,311
1117,312
1118,313
1119,319
1120,323
1121,328
1122,336
1123,340
1124,349
1125,361
1126,370
1127,375
1128,376
1129,367
1130,359
1131,350
1132,339
1133,329
1134,320
1135,311
1136,309
1137,308
1138,311
1139,308
1140,313
1141,315
1142,320
1143,320
1144,326
1145,325
1146,330
1147,328
1148,331
1149,330
1150,333
1151,329
1152,327
1153,327
1154,334
1155,345
1156,341
1157,329
1158,332
1159,332
1160,333
1161,337
1162,329
1163,312
1164,492
1165,675
1166,661
1167,300
1168,328
1169,338
1170,326
1171,330
1172,335
1173,339
1174,344
1175,350
1176,354
1177,364
1178,370
1179,380
1180,389
1181,391
1182,390
1183,382
1184,368
1185,358
1186,347
1187,337
1188,328
1189,321
1190,319
1191,320
1192,320
1193,321
1194,323
1195,325
1196,329
1197,328
1198,332
1199,330
1200,331
1201,331
1202,332
1203,330
1204,327
1205,329
1206,323
1207,320
1208,327
1209,337
1210,337
1211,321
1212,320
1213,319
1214,322
1215,321
1216,320
1217,297
1218,425
1219,675
1220,674
1221,343
1222,301
1223,322
1224,309
1225,310
1226,314
1227,319
1228,326
1229,328
1230,337
1231,343
1232,352
1233,358
1234,368
1235,373
1236,372
1237,364
1238,359
1239,346
1240,336
1241,324
1242,315
1243,310
1244,307
1245,307
1246,308
1247,310
1248,312
1249,316
1250,317
1251,321
1252,320
1253,322
1254,322
1255,321
1256,319
1257,322
1258,320
1259,320
1260,317
1261,314
1262,312
1263,317
1264,330
1265,333
1266,315
1267,314
1268,314
1269,315
1270,316
1271,313
1272,293
1273,399
1274,674
1275,674
1276,360
1277,281
1278,316
1279,303
1280,302
1281,302
1282,307
1283,312
1284,318
1285,320
1286,329
1287,339
1288,349
1289,356
1290,363
1291,363
1292,355
1293,348
1294,342
1295,328
1296,318
1297,308
1298,305
1299,299
1300,302
1301,299
1302,303
1303,306
1304,309
1305,309
1306,312
1307,315
1308,319
1309,318
1310,318
1311,318
1312,315
1313,319
1314,314
1315,317
1316,317
1317,328
1318,335
1319,323
1320,316
1321,320
1322,318
1323,324
1324,323
1325,322
1326,310
1327,583
1328,675
1329,556
1330,267
1331,334
1332,335
1333,332
1334,335
1335,349
1336,350
1337,356
1338,365
1339,373
1340,377
1341,391
1342,397
1343,407
1344,408
1345,402
1346,392
1347,379
1348,369
1349,358
1350,346
1351,341
1352,337
1353,336
1354,337
1355,337
1356,341
1357,338
1358,344
1359,345
1360,347
1361,348
1362,352
1363,351
1364,355
1365,351
1366,352
1367,350
1368,348
1369,344
1370,347
1371,353
1372,365
1373,349
1374,344
1375,345
1376,344
1377,346
1378,346
1379,341
1380,339
1381,573
1382,668
1383,508
1384,309
1385,353
1386,341
1387,337
1388,341
1389,343
1390,347
1391,352
1392,357
1393,363
1394,369
1395,378
1396,386
1397,394
1398,398
1399,396
1400,389
1401,381
1402,362
1403,350
1404,338
1405,332
1406,323
1407,321
1408,323
1409,325
1410,324
1411,329
1412,333
1413,333
1414,333
1415,332
1416,331
1417,332
1418,329
1419,329
1420,327
1421,328
1422,327
1423,323
1424,320
1425,325
1426,339
1427,340
1428,326
1429,324
1430,328
1431,327
1432,329
1433,326
1434,313
1435,422
1436,674
1437,670
1438,341
1439,314
1440,332
1441,318
1442,323
1443,327
1444,330
1445,335
1446,343
1447,348
1448,355
1449,359
1450,368
1451,380
1452,386
1453,381
1454,376
1455,365
1456,355
1457,344
1458,332
1459,325
1460,317
1461,314
1462,316
1463,316
1464,318
1465,322
1466,325
1467,327
1468,326
1469,330
1470,328
1471,329
1472,329
1473,329
1474,328
1475,329
1476,326
1477,328
1478,325
1479,324
1480,320
1481,329
1482,341
1483,338
1484,322
1485,322
1486,325
1487,325
1488,327
1489,317
1490,296
1491,551
1492,675
1493,670
1494,283
1495,325
1496,323
1497,314
1498,317
1499,323
1500,330
1501,330
1502,334
1503,340
1504,351
1505,356
1506,360
1507,367
1508,369
1509,362
1510,355
1511,346
1512,342
1513,331
1514,329
1515,319
1516,319
1517,312
1518,315
1519,314
1520,317
1521,320
1522,323
1523,324
1524,328
1525,330
1526,331
1527,330
1528,329
1529,330
1530,328
1531,326
1532,327
1533,326
1534,323
1535,320
1536,323
1537,340
1538,342
1539,327
1540,320
1541,325
1542,322
1543,328
1544,322
1545,297
1546,410
1547,675
1548,675
1549,427
1550,288
1551,322
1552,307
1553,308
1554,314
1555,317
1556,319
1557,326
1558,333
1559,341
1560,345
1561,353
1562,358
1563,359
1564,360
1565,352
1566,342
1567,336
1568,332
1569,325
1570,316
1571,314
1572,308
1573,310
1574,311
1575,312
1576,317
1577,315
1578,319
1579,322
1580,321
1581,322
1582,325
1583,324
1584,320
1585,320
1586,321
1587,318
1588,317
1589,312
1590,322
1591,330
1592,339
1593,318
1594,317
1595,320
1596,322
1597,320
1598,322
1599,293
1600,386
1601,675
1602,676
1603,501
1604,284
1605,323
1606,307
1607,309
1608,312
1609,318
1610,321
1611,327
1612,330
1613,338
1614,347
1615,351
1616,359
1617,364
1618,361
1619,354
1620,345
1621,340
1622,335
1623,327
1624,320
1625,316
1626,314
1627,314
1628,312
1629,315
1630,317
1631,317
1632,321
1633,325
1634,325
1635,324
1636,324
1637,326
1638,323
1639,323
1640,323
1641,319
1642,314
1643,314
1644,324
1645,331
1646,323
1647,312
1648,313
1649,311
1650,314
1651,312
1652,297
1653,296
1654,616
1655,676
1656,641
1657,253
1658,306
1659,299
1660,292
1661,295
1662,300
1663,302
1664,310
1665,316
1666,322
1667,328
1668,340
1669,344
1670,349
1671,349
1672,343
1673,333
1674,326
1675,320
1676,311
1677,303
1678,301
1679,300
1680,298
1681,296
1682,299
1683,302
1684,304
1685,306
1686,312
1687,314
1688,314
1689,317
1690,317
1691,319
1692,319
1693,318
1694,314
1695,316
1696,324
1697,335
1698,320
1699,317
1700,317
1701,321
1702,318
1703,323
1704,313
1705,327
1706,641
1707,674
1708,487
1709,271
1710,336
1711,325
1712,321
1713,328
1714,332
1715,341
1716,343
1717,351
1718,358
1719,366
1720,377
1721,386
1722,389
1723,390
1724,382
1725,370
1726,362
1727,351
1728,343
1729,334
1730,331
1731,327
1732,328
1733,329
1734,329
1735,331
1736,337
1737,337
1738,339
1739,343
1740,346
1741,345
1742,348
1743,344
1744,347
1745,343
1746,339
1747,336
1748,347
1749,354
1750,346
1751,336
1752,340
1753,337
1754,337
1755,339
1756,328
1757,334
1758,622
1759,675
1760,581
1761,286
1762,341
1763,330
1764,325
1765,333
1766,334
1767,337
1768,344
1769,352
1770,356
1771,366
1772,372
1773,384
1774,387
1775,389
1776,382
1777,376
1778,366
1779,356
1780,344
1781,335
1782,327
1783,325
1784,324
1785,324
1786,325
1787,329
1788,329
1789,334
1790,336
1791,337
1792,338
1793,338
1794,339
1795,338
1796,338
1797,337
1798,337
1799,332
1800,331
1801,336
1802,350
1803,346
1804,333
1805,332
1806,334
1807,334
1808,336
1809,328
1810,319
1811,545
1812,675
1813,665
1814,294
1815,331
1816,331
1817,322
1818,327
1819,330
1820,335
1821,339
1822,345
1823,350
1824,360
1825,367
1826,375
1827,381
1828,384
1829,378
1830,370
1831,363
1832,352
1833,342
1834,333
1835,327
1836,321
1837,318
1838,319
1839,320
1840,322
1841,323
1842,328
1843,330
1844,329
1845,331
1846,331
1847,332
1848,330
1849,333
1850,331
1851,329
1852,327
1853,329
1854,325
1855,324
1856,320
1857,325
1858,338
1859,340
1860,325
1861,323
1862,323
1863,324
1864,324
1865,322
1866,299
1867,423
1868,675
1869,673
1870,337
1871,302
1872,326
1873,313
1874,316
1875,318
1876,323
1877,328
1878,336
1879,338
1880,346
1881,353
1882,364
1883,370
1884,376
1885,373
1886,367
1887,357
1888,349
1889,338
1890,327
1891,319
1892,313
1893,309
1894,311
1895,310
1896,312
1897,316
1898,320
1899,318
1900,321
1901,321
1902,322
1903,325
1904,322
1905,321
1906,322
1907,324
1908,323
1909,323
1910,322
1911,320
1912,318
1913,327
1914,336
1915,338
1916,324
1917,330
1918,328
1919,330
1920,331
1921,328
1922,301
1923,499
1924,675
1925,652
1926,290
1927,327
1928,334
1929,326
1930,328
1931,333
1932,338
1933,343
1934,347
1935,356
1936,364
1937,374
1938,381
1939,389
1940,390
1941,388
1942,377
1943,368
1944,357
1945,346
1946,336
1947,329
1948,326
1949,323
1950,323
1951,323
1952,327
1953,326
1954,331
1955,334
1956,336
1957,335
1958,338
1959,336
1960,338
1961,339
1962,340
1963,336
1964,337
1965,335
1966,334
1967,326
1968,331
1969,336
1970,349
1971,339
1972,330
1973,329
1974,331
1975,329
1976,330
1977,319
1978,314
1979,595
1980,675
1981,623
1982,280
1983,332
1984,323
1985,318
1986,321
1987,327
1988,328
1989,334
1990,339
1991,348
1992,354
1993,362
1994,371
1995,381
1996,381
1997,378
1998,369
1999,360
2000,349
2001,337
2002,323
2003,314
2004,311
2005,310
2006,308
2007,313
2008,314
2009,315
2010,315
2011,320
2012,318
2013,322
2014,320
2015,322
2016,321
2017,322
2018,322
2019,321
2020,322
2021,320
2022,316
2023,311
2024,319
2025,332
2026,332
2027,315
2028,317
2029,315
2030,318
2031,318
2032,314
2033,289
2034,478
2035,675
2036,669
2037,287
2038,309
2039,314
2040,305
2041,308
2042,314
2043,317
2044,326
2045,327
2046,337
2047,344
2048,355
2049,363
2050,372
2051,380
2052,379
2053,371
2054,363
2055,352
2056,336
2057,325
2058,313
2059,310
2060,307
2061,307
2062,305
2063,309
2064,310
2065,314
2066,315
2067,316
2068,321
2069,324
2070,323
2071,324
2072,325
2073,326
2074,327
2075,327
2076,326
2077,325
2078,322
2079,326
2080,339
2081,342
2082,325
2083,325
2084,330
2085,332
2086,332
2087,333
2088,306
2089,414
2090,675
2091,671
2092,345
2093,314
2094,344
2095,331
2096,334
2097,339
2098,345
2099,348
2100,353
2101,362
2102,368
2103,378
2104,387
2105,398
2106,404
2107,402
2108,395
2109,382
2110,375
2111,358
2112,347
2113,339
2114,334
2115,327
2116,331
2117,332
2118,334
2119,334
2120,338
2121,339
2122,342
2123,344
2124,347
2125,349
2126,348
2127,346
2128,347
2129,346
2130,345
2131,345
2132,342
2133,340
2134,334
2135,339
2136,350
2137,354
2138,336
2139,337
2140,334
2141,338
2142,336
2143,335
2144,305
2145,445
2146,675
2147,673
2148,346
2149,325
2150,339
2151,326
2152,327
2153,335
2154,338
2155,342
2156,347
2157,354
2158,359
2159,368
2160,377
2161,389
2162,393
2163,392
2164,384
2165,380
2166,368
2167,352
2168,336
2169,325
2170,320
2171,315
2172,314
2173,317
2174,318
2175,318
2176,324
2177,324
2178,326
2179,327
2180,329
2181,328
2182,330
2183,327
2184,330
2185,328
2186,328
2187,326
2188,329
2189,328
2190,324
2191,322
2192,323
2193,334
2194,345
2195,329
2196,325
2197,324
2198,328
2199,326
2200,326
2201,309
2202,317
2203,630
2204,675
2205,600
2206,274
2207,331
2208,321
2209,317
2210,319
2211,324
2212,327
2213,334
2214,340
2215,347
2216,353
2217,361
2218,371
2219,382
2220,383
2221,380
2222,372
2223,365
2224,350
2225,341
2226,323
2227,314
2228,312
2229,311
2230,307
2231,310
2232,311
2233,313
2234,315
2235,318
2236,318
2237,319
2238,317
2239,318
2240,319
2241,320
2242,320
2243,319
2244,318
2245,317
2246,317
2247,315
2248,317
2249,315
2250,318
2251,316
2252,315
2253,318
2254,319
2255,312
2256,317
2257,324
2258,338
2259,325
2260,319
2261,320
2262,321
2263,323
2264,326
2265,307
2266,310
2267,634
2268,674
2269,511
2270,274
2271,331
2272,322
2273,317
2274,322
2275,327
2276,332
2277,337
2278,343
2279,350
2280,355
2281,366
2282,375
2283,385
2284,390
2285,387
2286,380
2287,369
2288,356
2289,344
2290,330
2291,321
2292,315
2293,314
2294,313
2295,316
2296,316
2297,323
2298,322
2299,327
2300,330
2301,333
2302,334
2303,335
2304,336
2305,337
2306,337
2307,336
2308,336
2309,336
2310,334
2311,335
2312,333
2313,331
2314,333
2315,334
2316,332
2317,329
2318,330
2319,340
2320,351
2321,338
2322,333
2323,332
2324,334
2325,335
2326,336
2327,320
2328,328
2329,635
2330,675
2331,550
2332,288
2333,341
2334,331
2335,327
2336,332
2337,334
2338,340
2339,344
2340,351
2341,356
2342,364
2343,373
2344,385
2345,393
2346,398
2347,394
2348,387
2349,378
2350,365
2351,347
2352,333
2353,323
2354,317
2355,313
2356,313
2357,315
2358,317
2359,319
2360,319
2361,322
2362,324
2363,325
2364,324
2365,330
2366,327
2367,328
2368,326
2369,328
2370,326
2371,330
2372,326
2373,327
2374,327
2375,328
2376,328
2377,329
2378,324
2379,321
2380,324
2381,332
2382,341
2383,334
2384,327
2385,329
2386,328
2387,328
2388,329
2389,312
2390,315
2391,611
2392,675
2393,624
2394,283
2395,331
2396,323
2397,320
2398,323
2399,327
2400,333
2401,337
2402,343
2403,347
2404,359
2405,364
2406,377
2407,384
2408,391
2409,387
2410,384
2411,371
2412,360
2413,345
2414,332
2415,321
2416,316
2417,312
2418,313
2419,312
2420,312
2421,316
2422,316
2423,318
2424,320
2425,321
2426,321
2427,324
2428,322
2429,324
2430,323
2431,323
2432,321
2433,322
2434,320
2435,320
2436,318
2437,320
2438,314
2439,312
2440,312
2441,326
2442,332
2443,316
2444,313
2445,317
2446,319
2447,319
2448,315
2449,296
2450,334
2451,672
2452,674
2453,445
2454,274
2455,326
2456,315
2457,314
2458,316
2459,322
2460,328
2461,335
2462,340
2463,345
2464,355
2465,365
2466,376
2467,386
2468,391
2469,386
2470,381
2471,369
2472,354
2473,338
2474,326
2475,312
2476,308
2477,304
2478,306
2479,306
2480,308
2481,309
2482,311
2483,311
2484,318
2485,318
2486,324
2487,321
2488,323
2489,327
2490,329
2491,326
2492,328
2493,328
2494,328
2495,323
2496,328
2497,340
2498,347
2499,330
2500,330
2501,332
2502,333
2503,335
2504,336
2505,321
2506,348
2507,672
2508,673
2509,451
2510,295
2511,347
2512,336
2513,337
2514,337
2515,343
2516,348
2517,355
2518,355
2519,366
2520,375
2521,385
2522,395
2523,405
2524,406
2525,402
2526,394
2527,384
2528,365
2529,350
2530,334
2531,328
2532,320
2533,321
2534,321
2535,321
2536,321
2537,327
2538,326
2539,329
2540,329
2541,332
2542,334
2543,332
2544,335
2545,333
2546,334
2547,334
2548,335
2549,332
2550,327
2551,325
2552,333
2553,342
2554,340
2555,325
2556,327
2557,328
2558,329
2559,328
2560,324
2561,296
2562,473
2563,675
2564,672
2565,316
2566,320
2567,330
2568,320
2569,320
2570,327
2571,330
2572,336
2573,341
2574,346
2575,352
2576,364
2577,373
2578,384
2579,389
2580,390
2581,385
2582,376
2583,365
2584,348
2585,333
2586,320
2587,314
2588,309
2589,310
2590,309
2591,312
2592,315
2593,320
2594,319
2595,321
2596,319
2597,325
2598,322
2599,326
2600,325
2601,327
2602,324
2603,326
2604,324
2605,319
2606,319
2607,333
2608,338
2609,331
2610,322
2611,323
2612,324
2613,325
2614,324
2615,312
2616,319
2617,614
2618,675
2619,615
2620,275
2621,326
2622,318
2623,314
2624,319
2625,320
2626,326
2627,328
2628,336
2629,341
2630,351
2631,359
2632,370
2633,376
2634,383
2635,376
2636,372
2637,362
2638,349
2639,333
2640,319
2641,306
2642,303
2643,298
2644,300
2645,300
2646,302
2647,304
2648,310
2649,310
2650,310
2651,311
2652,312
2653,313
2654,314
2655,313
2656,314
2657,314
2658,313
2659,313
2660,307
2661,312
2662,324
2663,329
2664,313
2665,314
2666,311
2667,315
2668,315
2669,317
2670,296
2671,358
2672,674
2673,672
2674,385
2675,283
2676,324
2677,317
2678,315
2679,319
2680,324
2681,331
2682,336
2683,342
2684,351
2685,361
2686,369
2687,384
2688,391
2689,392
2690,388
2691,380
2692,369
2693,357
2694,345
2695,330
2696,324
2697,318
2698,318
2699,320
2700,322
2701,324
2702,328
2703,328
2704,332
2705,334
2706,338
2707,338
2708,342
2709,340
2710,340
2711,341
2712,339
2713,338
2714,337
2715,332
2716,335
2717,343
2718,353
2719,338
2720,332
2721,335
2722,337
2723,333
2724,338
2725,323
2726,323
2727,616
2728,675
2729,590
2730,285
2731,341
2732,331
2733,326
2734,331
2735,335
2736,339
2737,345
2738,349
2739,356
2740,363
2741,376
2742,384
2743,392
2744,396
2745,396
2746,388
2747,379
2748,366
2749,350
2750,334
2751,327
2752,321
2753,319
2754,317
2755,319
2756,321
2757,324
2758,327
2759,329
2760,330
2761,333
2762,332
2763,333
2764,334
2765,332
2766,331
2767,332
2768,332
2769,331
2770,328
2771,324
2772,327
2773,338
2774,348
2775,330
2776,327
2777,329
2778,330
2779,329
2780,332
2781,304
2782,358
2783,674
2784,675
2785,497
2786,289
2787,331
2788,320
2789,317
2790,322
2791,325
2792,330
2793,335
2794,342
2795,348
2796,357
2797,363
2798,376
2799,380
2800,383
2801,378
2802,371
2803,360
2804,347
2805,333
2806,319
2807,311
2808,304
2809,303
2810,303
2811,301
2812,305
2813,309
2814,308
2815,312
2816,312
2817,311
2818,316
2819,319
2820,315
2821,319
2822,320
2823,320
2824,321
2825,322
2826,318
2827,324
2828,335
2829,340
2830,322
2831,322
2832,324
2833,326
2834,325
2835,326
2836,310
2837,351
2838,673
2839,674
2840,439
2841,281
2842,334
2843,322
2844,320
2845,326
2846,331
2847,332
2848,339
2849,342
2850,351
2851,357
2852,370
2853,380
2854,386
2855,386
2856,382
2857,371
2858,363
2859,346
2860,333
2861,321
2862,315
2863,308
2864,309
2865,309
2866,313
2867,312
2868,318
2869,317
2870,319
2871,320
2872,323
2873,325
2874,324
2875,326
2876,325
2877,325
2878,324
2879,323
2880,322
2881,321
2882,317
2883,320
2884,329
2885,338
2886,320
2887,320
2888,321
2889,322
2890,320
2891,324
2892,301
2893,339
2894,668
2895,675
2896,514
2897,284
2898,327
2899,315
2900,311
2901,317
2902,319
2903,325
2904,327
2905,336
2906,342
2907,350
2908,358
2909,367
2910,373
2911,377
2912,374
2913,369
2914,358
2915,347
2916,333
2917,321
2918,311
2919,307
2920,304
2921,306
2922,310
2923,309
2924,312
2925,316
2926,317
2927,317
2928,320
2929,319
2930,320
2931,320
2932,320
2933,320
2934,321
2935,321
2936,320
2937,314
2938,316
2939,320
2940,335
2941,334
2942,320
2943,320
2944,321
2945,323
2946,326
2947,320
2948,289
2949,416
2950,675
2951,675
2952,413
2953,292
2954,323
2955,311
2956,309
2957,316
2958,319
2959,325
2960,328
2961,336
2962,344
2963,352
2964,359
2965,370
2966,375
2967,375
2968,369
2969,361
2970,351
2971,344
2972,327
2973,319
2974,311
2975,308
2976,306
2977,309
2978,308
2979,311
2980,313
2981,315
2982,315
2983,320
2984,319
2985,321
2986,320
2987,323
2988,323
2989,322
2990,321
2991,321
2992,320
2993,314
2994,320
2995,332
2996,337
2997,318
2998,321
2999,320
3000,323
3001,321
3002,325
3003,297
3004,393
3005,675
3006,674
3007,372
3008,291
3009,331
3010,320
3011,321
3012,327
3013,329
3014,337
3015,342
3016,351
3017,359
3018,368
3019,379
3020,389
3021,395
3022,396
3023,390
3024,380
3025,370
3026,358
3027,342
3028,335
3029,330
3030,328
3031,326
3032,326
3033,328
3034,328
3035,332
3036,332
3037,337
3038,341
3039,343
3040,341
3041,345
3042,343
3043,345
3044,341
3045,342
3046,339
3047,337
3048,332
3049,337
3050,348
3051,354
3052,335
3053,334
3054,334
3055,334
3056,335
3057,334
3058,309
3059,380
3060,674
3061,675
3062,454
3063,302
3064,339
3065,326
3066,327
3067,328
3068,334
3069,338
3070,341
3071,347
3072,356
3073,362
3074,373
3075,382
3076,390
3077,389
3078,387
3079,378
3080,367
3081,352
3082,339
3083,327
3084,322
3085,315
3086,316
3087,314
3088,319
3089,319
3090,322
3091,324
3092,327
3093,325
3094,328
3095,328
3096,329
3097,329
3098,329
3099,329
3100,328
3101,328
3102,324
3103,324
3104,332
3105,343
3106,337
3107,325
3108,327
3109,327
3110,327
3111,330
3112,320
3113,303
3114,537
3115,676
3116,671
3117,297
3118,323
3119,327
3120,315
3121,322
3122,323
3123,332
3124,332
3125,341
3126,345
3127,352
3128,362
3129,374
3130,379
3131,386
3132,384
3133,377
3134,365
3135,356
3136,342
3137,331
3138,321
3139,312
3140,312
3141,309
3142,312
3143,313
3144,314
3145,316
3146,318
3147,319
3148,319
3149,318
3150,321
3151,320
3152,321
3153,320
3154,320
3155,317
3156,319
3157,313
3158,313
3159,319
3160,331
3161,327
3162,312
3163,315
3164,316
3165,317
3166,319
3167,310
3168,289
3169,474
3170,675
3171,664
3172,287
3173,307
3174,319
3175,313
3176,313
3177,317
3178,323
3179,329
3180,332
3181,341
3182,349
3183,359
3184,368
3185,377
3186,384
3187,382
3188,373
3189,368
3190,353
3191,343
3192,328
3193,319
3194,311
3195,309
3196,308
3197,309
3198,309
3199,314
3200,317
3201,319
3202,319
3203,326
3204,329
3205,332
3206,330
3207,331
3208,333
3209,334
3210,333
3211,331
3212,331
3213,335
3214,346
3215,348
3216,331
3217,330
3218,334
3219,337
3220,335
3221,334
3222,313
3223,431
3224,675
3225,672
3226,344
3227,318
3228,340
3229,330
3230,332
3231,332
3232,340
3233,344
3234,350
3235,353
3236,363
3237,369
3238,380
3239,388
3240,393
3241,392
3242,385
3243,376
3244,364
3245,350
3246,339
3247,328
3248,321
3249,318
3250,320
3251,319
3252,321
3253,324
3254,326
3255,328
3256,332
3257,334
3258,332
3259,334
3260,333
3261,334
3262,333
3263,333
3264,332
3265,330
3266,324
3267,326
3268,338
3269,350
3270,332
3271,327
3272,327
3273,330
3274,328
3275,331
3276,316
3277,329
3278,646
3279,675
3280,582
3281,286
3282,334
3283,324
3284,321
3285,327
3286,327
3287,332
3288,336
3289,343
3290,351
3291,358
3292,366
3293,375
3294,385
3295,386
3296,384
3297,374
3298,365
3299,356
3300,341
3301,327
3302,322
3303,314
3304,315
3305,312
3306,316
3307,319
3308,321
3309,322
3310,326
3311,326
3312,329
3313,327
3314,330
3315,328
3316,330
3317,327
3318,327
3319,326
3320,325
3321,320
3322,321
3323,331
3324,342
3325,329
3326,321
3327,322
3328,322
3329,326
3330,324
3331,310
3332,301
3333,573
3334,675
3335,637
3336,272
3337,322
3338,317
3339,310
3340,313
3341,317
3342,322
3343,328
3344,331
3345,341
3346,347
3347,356
3348,364
3349,376
3350,375
3351,375
3352,366
3353,359
3354,348
3355,335
3356,322
3357,313
3358,306
3359,305
3360,305
3361,308
3362,309
3363,310
3364,312
3365,316
3366,317
3367,320
3368,322
3369,320
3370,321
3371,321
3372,325
3373,323
3374,324
3375,319
3376,322
3377,322
3378,338
3379,337
3380,323
3381,323
3382,328
3383,329
3384,333
3385,327
3386,303
3387,459
3388,675
3389,663
3390,307
3391,322
3392,339
3393,330
3394,333
3395,336
3396,341
3397,344
3398,351
3399,358
3400,365
3401,374
3402,383
3403,390
3404,394
3405,393
3406,383
3407,376
3408,362
3409,350
3410,336
3411,328
3412,320
3413,321
3414,316
3415,318
3416,318
3417,321
3418,322
3419,326
3420,327
3421,330
3422,329
3423,331
3424,330
3425,332
3426,328
3427,329
3428,326
3429,327
3430,320
3431,320
3432,324
3433,335
3434,339
3435,321
3436,321
3437,319
3438,321
3439,322
3440,320
3441,292
3442,379
3443,674
3444,674
3445,399
3446,292
3447,320
3448,309
3449,308
3450,314
3451,317
3452,322
3453,324
3454,330
3455,337
3456,346
3457,353
3458,363
3459,369
3460,369
3461,364
3462,359
3463,346
3464,336
3465,322
3466,311
3467,303
3468,303
3469,300
3470,301
3471,301
3472,305
3473,308
3474,310
3475,313
3476,315
3477,315
3478,316
3479,314
3480,315
3481,317
3482,314
3483,319
3484,315
3485,310
3486,311
3487,323
3488,334
3489,324
3490,313
3491,316
3492,316
3493,318
3494,318
3495,310
3496,302
3497,580
3498,675
3499,647
3500,274
3501,318
3502,312
3503,309
3504,312
3505,316
3506,320
3507,324
3508,332
3509,337
3510,343
3511,352
3512,360
3513,369
3514,372
3515,370
3516,363
3517,357
3518,345
3519,332
3520,323
3521,315
3522,308
3523,305
3524,308
3525,309
3526,311
3527,313
3528,317
3529,317
3530,319
3531,319
3532,322
3533,321
3534,326
3535,323
3536,323
3537,323
3538,321
3539,319
3540,327
3541,335
3542,338
3543,322
3544,322
3545,324
3546,328
3547,326
3548,328
3549,306
3550,415
3551,675
3552,671
3553,340
3554,305
3555,337
3556,323
3557,330
3558,332
3559,338
3560,344
3561,350
3562,356
3563,367
3564,374
3565,384
3566,393
3567,399
3568,396
3569,391
3570,377
3571,371
3572,355
3573,345
3574,336
3575,332
3576,327
3577,328
3578,327
3579,330
3580,331
3581,333
3582,335
3583,340
3584,342
3585,342
3586,342
3587,345
3588,344
3589,343
3590,343
3591,338
3592,334
3593,335
3594,346
3595,354
3596,342
3597,334
3598,335
3599,337
3600,337
3601,337
3602,328
3603,332
3604,626
3605,675
3606,603
3607,290
3608,341
3609,329
3610,329
3611,328
3612,335
3613,336
3614,342
3615,348
3616,355
3617,363
3618,373
3619,381
3620,386
3621,389
3622,385
3623,377
3624,369
3625,358
3626,342
3627,332
3628,324
3629,322
3630,318
3631,320
3632,321
3633,322
3634,325
3635,329
3636,329
3637,331
3638,329
3639,332
3640,332
3641,334
3642,332
3643,333
3644,331
3645,328
3646,323
3647,330
3648,339
3649,346
3650,330
3651,327
3652,328
3653,329
3654,327
3655,331
3656,305
3657,383
3658,675
3659,676
3660,489
3661,293
3662,330
3663,319
3664,319
3665,321
3666,326
3667,331
3668,335
3669,342
3670,348
3671,354
3672,363
3673,372
3674,378
3675,376
3676,372
3677,359
3678,352
3679,341
3680,329
3681,317
3682,313
3683,307
3684,307
3685,305
3686,310
3687,308
3688,311
3689,314
3690,315
3691,316
3692,321
3693,317
3694,320
3695,319
3696,320
3697,320
3698,319
3699,316
3700,314
3701,316
3702,328
3703,335
3704,321
3705,316
3706,316
3707,321
3708,320
3709,321
3710,303
3711,338
3712,670
3713,674
3714,484
3715,270
3716,325
3717,314
3718,312
3719,320
3720,321
3721,330
3722,333
3723,339
3724,348
3725,356
3726,366
3727,376
3728,380
3729,383
3730,375
3731,369
3732,359
3733,348
3734,334
3735,326
3736,322
3737,317
3738,318
3739,319
3740,320
3741,321
3742,327
3743,328
3744,328
3745,333
3746,338
3747,338
3748,340
3749,338
3750,339
3751,337
3752,340
3753,337
3754,330
3755,333
3756,344
3757,353
3758,341
3759,330
3760,334
3761,334
3762,336
3763,335
3764,324
3765,325
3766,611
3767,675
3768,609
3769,289
3770,337
3771,329
3772,325
3773,327
3774,332
3775,340
3776,341
3777,345
3778,353
3779,361
3780,370
3781,381
3782,386
3783,388
3784,383
3785,375
3786,364
3787,358
3788,342
3789,331
3790,320
3791,317
3792,316
3793,315
3794,317
3795,323
3796,322
3797,325
3798,325
3799,328
3800,327
3801,329
3802,330
3803,330
3804,328
3805,330
3806,328
3807,329
3808,326
3809,324
3810,323
3811,324
3812,335
3813,345
3814,330
3815,324
3816,327
3817,327
3818,328
3819,328
3820,306
3821,326
3822,666
3823,676
3824,603
3825,285
3826,333
3827,318
3828,317
3829,319
3830,324
3831,328
3832,334
3833,336
3834,346
3835,351
3836,360
3837,370
3838,376
3839,375
3840,373
3841,365
3842,358
3843,349
3844,335
3845,326
3846,317
3847,314
3848,312
3849,314
3850,314
3851,316
3852,318
3853,319
3854,322
3855,323
3856,324
3857,326
3858,327
3859,326
3860,325
3861,327
3862,324
3863,324
3864,325
3865,324
3866,319
3867,319
3868,319
3869,334
3870,338
3871,324
3872,318
3873,322
3874,319
3875,320
3876,320
3877,294
3878,376
3879,675
3880,675
3881,430
3882,284
3883,323
3884,309
3885,311
3886,311
3887,320
3888,324
3889,327
3890,333
3891,341
3892,351
3893,357
3894,368
3895,373
3896,374
3897,366
3898,361
3899,349
3900,341
3901,324
3902,317
3903,311
3904,308
3905,304
3906,307
3907,307
3908,308
3909,311
3910,314
3911,315
3912,320
3913,319
3914,322
3915,322
3916,324
3917,323
3918,323
3919,325
3920,324
3921,321
3922,319
3923,324
3924,338
3925,337
3926,323
3927,325
3928,326
3929,328
3930,328
3931,327
3932,302
3933,441
3934,675
3935,672
3936,330
3937,316
3938,336
3939,330
3940,329
3941,334
3942,338
3943,345
3944,346
3945,357
3946,363
3947,372
3948,380
3949,392
3950,393
3951,391
3952,383
3953,374
3954,361
3955,350
3956,336
3957,327
3958,320
3959,320
3960,317
3961,319
3962,320
3963,321
3964,324
3965,327
3966,328
3967,330
3968,334
3969,334
3970,336
3971,332
3972,334
3973,333
3974,332
3975,330
3976,326
3977,320
3978,325
3979,336
3980,342
3981,324
3982,324
3983,322
3984,323
3985,325
3986,326
3987,297
3988,364
3989,674
3990,675
3991,474
3992,288
3993,323
3994,309
3995,308
3996,312
3997,316
3998,320
3999,325
4000,328
4001,337
4002,346
4003,352
4004,358
4005,365
4006,366
4007,361
4008,352
4009,344
4010,332
4011,318
4012,308
4013,303
4014,295
4015,296
4016,295
4017,298
4018,298
4019,301
4020,301
4021,303
4022,304
4023,310
4024,306
4025,310
4026,309
4027,311
4028,312
4029,309
4030,310
4031,308
4032,304
4033,305
4034,312
4035,324
4036,320
4037,306
4038,307
4039,309
4040,309
4041,310
4042,302
4043,278
4044,505
4045,676
4046,673
4047,289
4048,305
4049,307
4050,299
4051,301
4052,307
4053,310
4054,317
4055,321
4056,330
4057,335
4058,346
4059,356
4060,364
4061,367
4062,370
4063,362
4064,356
4065,344
4066,333
4067,318
4068,310
4069,304
4070,304
4071,303
4072,306
4073,307
4074,307
4075,312
4076,312
4077,315
4078,315
4079,319
4080,321
4081,321
4082,325
4083,324
4084,321
4085,322
4086,322
4087,321
4088,319
4089,321
4090,334
4091,340
4092,324
4093,325
4094,324
4095,329
4096,328
4097,332
4098,312
4099,340
4100,672
4101,675
4102,503
4103,288
4104,345
4105,337
4106,335
4107,341
4108,346
4109,351
4110,355
4111,362
4112,370
4113,380
4114,391
4115,401
4116,406
4117,407
4118,402
4119,394
4120,384
4121,373
4122,359
4123,345
4124,342
4125,337
4126,335
4127,335
4128,337
4129,337
4130,344
4131,341
4132,347
4133,348
4134,351
4135,352
4136,356
4137,356
4138,357
4139,353
4140,353
4141,351
4142,352
4143,348
4144,348
4145,348
4146,357
4147,366
4148,352
4149,344
4150,344
4151,349
4152,348
4153,347
4154,329
4155,350
4156,666
4157,675
4158,600
4159,307
4160,349
4161,339
4162,334
4163,341
4164,343
4165,347
4166,350
4167,357
4168,360
4169,371
4170,379
4171,391
4172,395
4173,400
4174,394
4175,389
4176,378
4177,369
4178,351
4179,339
4180,329
4181,324
4182,322
4183,322
4184,322
4185,326
4186,327
4187,327
4188,329
4189,329
4190,331
4191,330
4192,334
4193,332
4194,332
4195,334
4196,335
4197,333
4198,335
4199,333
4200,333
4201,331
4202,329
4203,326
4204,339
4205,349
4206,340
4207,329
4208,331
4209,332
4210,332
4211,332
4212,319
4213,301
4214,561
4215,676
4216,672
4217,303
4218,328
4219,326
4220,319
4221,320
4222,323
4223,327
4224,333
4225,334
4226,342
4227,350
4228,357
4229,369
4230,376
4231,377
4232,377
4233,370
4234,362
4235,352
4236,336
4237,323
4238,310
4239,305
4240,301
4241,301
4242,299
4243,306
4244,305
4245,307
4246,306
4247,309
4248,311
4249,314
4250,314
4251,314
4252,316
4253,316
4254,317
4255,316
4256,315
4257,315
4258,312
4259,317
4260,317
4261,315
4262,313
4263,320
4264,331
4265,329
4266,318
4267,320
4268,320
4269,320
4270,323
4271,316
4272,283
4273,470
4274,675
4275,656
4276,296
4277,318
4278,331
4279,321
4280,326
4281,329
4282,337
4283,341
4284,347
4285,355
4286,361
4287,369
4288,383
4289,392
4290,397
4291,396
4292,390
4293,380
4294,368
4295,352
4296,341
4297,331
4298,327
4299,322
4300,322
4301,322
4302,325
4303,329
4304,329
4305,330
4306,332
4307,337
4308,338
4309,339
4310,339
4311,341
4312,340
4313,340
4314,338
4315,339
4316,336
4317,337
4318,335
4319,331
4320,327
4321,331
4322,343
4323,351
4324,334
4325,331
4326,333
4327,333
4328,332
4329,334
4330,311
4331,342
4332,671
4333,676
4334,575
4335,293
4336,336
4337,325
4338,323
4339,327
4340,332
4341,335
4342,338
4343,346
4344,353
4345,358
4346,369
4347,380
4348,386
4349,390
4350,389
4351,380
4352,371
4353,359
4354,344
4355,328
4356,321
4357,315
4358,312
4359,312
4360,316
4361,313
4362,317
4363,318
4364,320
4365,319
4366,324
4367,321
4368,324
4369,322
4370,325
4371,324
4372,325
4373,322
4374,321
4375,319
4376,318
4377,320
4378,318
4379,314
4380,316
4381,327
4382,333
4383,318
4384,315
4385,316
4386,316
4387,316
4388,315
4389,292
4390,340
4391,674
4392,674
4393,458
4394,274
4395,321
4396,308
4397,307
4398,311
4399,314
4400,319
4401,326
4402,330
4403,339
4404,347
4405,359
4406,367
4407,375
4408,377
4409,375
4410,369
4411,360
4412,344
4413,327
4414,312
4415,308
4416,300
4417,298
4418,298
4419,299
4420,301
4421,303
4422,304
4423,304
4424,307
4425,310
4426,313
4427,313
4428,317
4429,316
4430,320
4431,316
4432,319
4433,319
4434,320
4435,316
4436,318
4437,325
4438,338
4439,327
4440,323
4441,322
4442,327
4443,326
4444,329
4445,319
4446,294
4447,554
4448,675
4449,624
4450,281
4451,330
4452,331
4453,325
4454,329
4455,333
4456,336
4457,341
4458,347
4459,353
4460,362
4461,373
4462,384
4463,393
4464,398
4465,398
4466,387
4467,377
4468,364
4469,350
4470,333
4471,326
4472,318
4473,317
4474,317
4475,319
4476,318
4477,322
4478,322
4479,327
4480,329
4481,331
4482,334
4483,335
4484,335
4485,337
4486,334
4487,337
4488,335
4489,335
4490,332
4491,332
4492,330
4493,326
4494,335
4495,348
4496,343
4497,329
4498,330
4499,331
4500,334
4501,331
4502,326
4503,299
4504,500
4505,675
4506,673
4507,327
4508,327
4509,333
4510,325
4511,327
4512,332
4513,334
4514,342
4515,344
4516,352
4517,360
4518,369
4519,378
4520,389
4521,396
4522,399
4523,392
4524,383
4525,372
4526,354
4527,340
4528,326
4529,320
4530,315
4531,314
4532,314
4533,317
4534,319
4535,320
4536,320
4537,321
4538,320
4539,324
4540,323
4541,324
4542,321
4543,325
4544,322
4545,323
4546,321
4547,321
4548,318
4549,316
4550,315
4551,322
4552,330
4553,331
4554,313
4555,317
4556,314
4557,317
4558,317
4559,315
4560,283
4561,433
4562,675
4563,671
4564,317
4565,303
4566,321
4567,312
4568,314
4569,318
4570,322
4571,328
4572,334
4573,341
4574,351
4575,359
4576,369
4577,379
4578,390
4579,389
4580,384
4581,376
4582,364
4583,347
4584,333
4585,317
4586,311
4587,307
4588,308
4589,308
4590,312
4591,310
4592,314
4593,314
4594,318
4595,319
4596,323
4597,323
4598,328
4599,328
4600,330
4601,330
4602,331
4603,328
4604,329
4605,325
4606,327
4607,341
4608,349
4609,335
4610,332
4611,332
4612,335
4613,335
4614,335
4615,325
4616,319
4617,614
4618,675
4619,576
4620,285
4621,341
4622,334
4623,331
4624,332
4625,340
4626,342
4627,349
4628,353
4629,360
4630,367
4631,377
4632,387
4633,395
4634,401
4635,397
4636,389
4637,378
4638,363
4639,347
4640,334
4641,324
4642,319
4643,317
4644,317
4645,316
4646,317
4647,320
4648,322
4649,323
4650,325
4651,327
4652,330
4653,329
4654,328
4655,328
4656,329
4657,327
4658,326
4659,326
4660,324
4661,323
4662,321
4663,318
4664,329
4665,337
4666,328
4667,319
4668,321
4669,323
4670,323
4671,322
4672,306
4673,303
4674,595
4675,675
4676,632
4677,280
4678,324
4679,315
4680,312
4681,316
4682,321
4683,323
4684,327
4685,333
4686,339
4687,346
4688,355
4689,368
4690,374
4691,380
4692,378
4693,373
4694,363
4695,351
4696,337
4697,323
4698,311
4699,308
4700,302
4701,304
4702,304
4703,308
4704,309
4705,313
4706,313
4707,318
4708,316
4709,320
4710,320
4711,320
4712,320
4713,323
4714,321
4715,322
4716,320
4717,321
4718,323
4719,322
4720,319
4721,315
4722,318
4723,333
4724,338
4725,322
4726,322
4727,320
4728,323
4729,323
4730,326
4731,300
4732,333
4733,671
4734,675
4735,540
4736,278
4737,325
4738,315
4739,311
4740,314
4741,317
4742,323
4743,326
4744,333
4745,339
4746,348
4747,354
4748,365
4749,375
4750,377
4751,375
4752,367
4753,360
4754,348
4755,334
4756,319
4757,308
4758,305
4759,305
4760,304
4761,305
4762,308
4763,311
4764,312
4765,316
4766,316
4767,322
4768,320
4769,322
4770,322
4771,325
4772,324
4773,325
4774,323
4775,325
4776,322
4777,322
4778,320
4779,333
4780,342
4781,335
4782,324
4783,330
4784,328
4785,333
4786,336
4787,330
4788,299
4789,502
4790,675
4791,662
4792,304
4793,334
4794,344
4795,335
4796,339
4797,342
4798,348
4799,354
4800,359
4801,364
4802,375
4803,382
4804,393
4805,400
4806,407
4807,401
4808,396
4809,383
4810,375
4811,358
4812,347
4813,334
4814,331
4815,327
4816,329
4817,325
4818,327
4819,330
4820,333
4821,334
4822,337
4823,336
4824,342
4825,341
4826,340
4827,341
4828,342
4829,340
4830,339
4831,338
4832,338
4833,337
4834,335
4835,333
4836,332
4837,343
4838,352
4839,342
4840,335
4841,332
4842,335
4843,337
4844,337
4845,320
4846,311
4847,597
4848,676
4849,655
4850,294
4851,335
4852,329
4853,324
4854,324
4855,332
4856,333
4857,339
4858,344
4859,348
4860,356
4861,369
4862,374
4863,383
4864,388
4865,386
4866,379
4867,372
4868,360
4869,345
4870,333
4871,322
4872,319
4873,315
4874,315
4875,314
4876,317
4877,320
4878,321
4879,322
4880,326
4881,326
4882,328
4883,328
4884,330
4885,326
4886,330
4887,328
4888,328
4889,328
4890,330
4891,326
4892,324
4893,319
4894,327
4895,339
4896,343
4897,326
4898,326
4899,327
4900,327
4901,327
4902,325
4903,295
4904,395
4905,675
4906,675
4907,428
4908,296
4909,327
4910,313
4911,316
4912,318
4913,323
4914,327
4915,330
4916,335
4917,344
4918,350
4919,361
4920,370
4921,378
4922,377
4923,373
4924,363
4925,352
4926,340
4927,326
4928,311
4929,306
4930,301
4931,301
4932,302
4933,304
4934,303
4935,308
4936,306
4937,309
4938,314
4939,315
4940,313
4941,315
4942,316
4943,317
4944,316
4945,318
4946,319
4947,316
4948,315
4949,314
4950,323
4951,334
4952,329
4953,316
4954,319
4955,321
4956,323
4957,324
4958,322
4959,292
4960,478
4961,675
4962,667
4963,304
4964,320
4965,334
4966,329
4967,329
4968,335
4969,340
4970,347
4971,350
4972,358
4973,367
4974,377
4975,385
4976,396
4977,399
4978,399
4979,392
4980,379
4981,369
4982,354
4983,343
4984,334
4985,327
4986,325
4987,325
4988,327
4989,328
4990,330
4991,329
4992,331
4993,339
4994,336
4995,342
4996,339
4997,342
4998,339
4999,338
5000,338
5001,340
5002,334
5003,332
5004,328
5005,328
5006,339
5007,349
5008,331
5009,329
5010,325
5011,325
5012,327
5013,328
5014,312
5015,319
5016,621
5017,676
5018,596
5019,279
5020,333
5021,322
5022,318
5023,323
5024,326
5025,330
5026,338
5027,343
5028,351
5029,356
5030,367
5031,377
5032,384
5033,386
5034,384
5035,371
5036,368
5037,356
5038,343
5039,329
5040,326
5041,317
5042,319
5043,316
5044,323
5045,319
5046,324
5047,324
5048,328
5049,328
5050,330
5051,331
5052,331
5053,330
5054,333
5055,330
5056,332
5057,332
5058,327
5059,328
5060,329
5061,342
5062,349
5063,331
5064,328
5065,332
5066,332
5067,332
5068,331
5069,310
5070,389
5071,675
5072,676
5073,479
5074,301
5075,339
5076,324
5077,324
5078,328
5079,334
5080,336
5081,343
5082,345
5083,357
5084,364
5085,374
5086,378
5087,389
5088,385
5089,383
5090,375
5091,367
5092,354
5093,343
5094,329
5095,325
5096,321
5097,320
5098,319
5099,323
5100,327
5101,330
5102,330
5103,333
5104,335
5105,337
5106,337
5107,336
5108,340
5109,337
5110,339
5111,338
5112,336
5113,330
5114,332
5115,343
5116,354
5117,340
5118,334
5119,333
5120,335
5121,334
5122,337
5123,319
5124,327
5125,632
5126,676
5127,666
5128,296
5129,325
5130,322
5131,317
5132,319
5133,323
5134,329
5135,332
5136,341
5137,343
5138,350
5139,359
5140,367
5141,374
5142,374
5143,372
5144,363
5145,358
5146,347
5147,334
5148,324
5149,315
5150,312
5151,310
5152,308
5153,311
5154,311
5155,312
5156,310
5157,315
5158,315
5159,315
5160,313
5161,314
5162,312
5163,313
5164,312
5165,313
5166,306
5167,304
5168,310
5169,321
5170,330
5171,314
5172,309
5173,310
5174,312
5175,312
5176,312
5177,293
5178,366
5179,675
5180,675
5181,424
5182,271
5183,314
5184,306
5185,303
5186,309
5187,310
5188,318
5189,322
5190,326
5191,335
5192,347
5193,353
5194,364
5195,366
5196,365
5197,356
5198,348
5199,340
5200,333
5201,323
5202,312
5203,303
5204,304
5205,305
5206,306
5207,307
5208,307
5209,310
5210,314
5211,317
5212,322
5213,323
5214,325
5215,324
5216,325
5217,326
5218,323
5219,322
5220,321
5221,332
5222,336
5223,329
5224,323
5225,326
5226,328
5227,328
5228,328
5229,324
5230,328
5231,612
5232,674
5233,531
5234,280
5235,342
5236,331
5237,327
5238,331
5239,337
5240,341
5241,347
5242,352
5243,359
5244,368
5245,376
5246,384
5247,390
5248,392
5249,387
5250,376
5251,367
5252,356
5253,345
5254,336
5255,327
5256,323
5257,324
5258,325
5259,327
5260,329
5261,331
5262,334
5263,335
5264,339
5265,337
5266,336
5267,336
5268,339
5269,336
5270,335
5271,329
5272,332
5273,338
5274,347
5275,336
5276,328
5277,327
5278,331
5279,331
5280,330
5281,323
5282,330
5283,600
5284,675
5285,566
5286,284
5287,337
5288,326
5289,325
5290,326
5291,332
5292,336
5293,338
5294,344
5295,351
5296,357
5297,367
5298,377
5299,387
5300,384
5301,380
5302,370
5303,364
5304,349
5305,336
5306,324
5307,318
5308,312
5309,315
5310,312
5311,316
5312,315
5313,321
5314,323
5315,324
5316,324
5317,327
5318,328
5319,328
5320,326
5321,327
5322,326
5323,326
5324,322
5325,325
5326,336
5327,343
5328,328
5329,322
5330,324
5331,323
5332,325
5333,326
5334,313
5335,373
5336,674
5337,675
5338,459
5339,288
5340,333
5341,318
5342,318
5343,318
5344,325
5345,327
5346,336
5347,341
5348,348
5349,354
5350,365
5351,371
5352,376
5353,372
5354,370
5355,361
5356,352
5357,341
5358,329
5359,318
5360,312
5361,311
5362,310
5363,311
5364,311
5365,315
5366,315
5367,317
5368,318
5369,321
5370,323
5371,323
5372,321
5373,319
5374,316
5375,320
5376,319
5377,317
5378,310
5379,312
5380,323
5381,332
5382,317
5383,312
5384,312
5385,315
5386,312
5387,314
5388,296
5389,343
5390,672
5391,675
5392,450
5393,267
5394,315
5395,302
5396,303
5397,305
5398,309
5399,315
5400,320
5401,324
5402,334
5403,340
5404,349
5405,360
5406,363
5407,364
5408,359
5409,349
5410,340
5411,330
5412,321
5413,307
5414,306
5415,299
5416,299
5417,298
5418,302
5419,302
5420,305
5421,309
5422,313
5423,315
5424,314
5425,315
5426,319
5427,317
5428,320
5429,316
5430,320
5431,317
5432,315
5433,318
5434,330
5435,337
5436,321
5437,320
5438,323
5439,324
5440,324
5441,328
5442,312
5443,351
5444,673
5445,673
5446,437
5447,290
5448,339
5449,330
5450,328
5451,334
5452,339
5453,346
5454,348
5455,355
5456,361
5457,369
5458,378
5459,390
5460,392
5461,393
5462,383
5463,377
5464,365
5465,356
5466,341
5467,334
5468,330
5469,327
5470,323
5471,326
5472,328
5473,329
5474,331
5475,334
5476,337
5477,336
5478,341
5479,341
5480,341
5481,340
5482,340
5483,339
5484,339
5485,339
5486,334
5487,331
5488,334
5489,345
5490,352
5491,335
5492,335
5493,332
5494,334
5495,333
5496,336
5497,313
5498,373
5499,674
5500,675
5501,466
5502,300
5503,338
5504,326
5505,325
5506,329
5507,332
5508,338
5509,343
5510,348
5511,356
5512,363
5513,370
5514,381
5515,386
5516,385
5517,380
5518,371
5519,363
5520,350
5521,336
5522,325
5523,320
5524,316
5525,318
5526,316
5527,319
5528,320
5529,324
5530,324
5531,326
5532,327
5533,330
5534,329
5535,332
5536,331
5537,332
5538,330
5539,331
5540,328
5541,330
5542,328
5543,326
5544,321
5545,330
5546,343
5547,341
5548,326
5549,327
5550,325
5551,328
5552,328
5553,324
5554,295
5555,459
5556,675
5557,675
5558,353
5559,312
5560,330
5561,319
5562,321
5563,323
5564,330
5565,332
5566,338
5567,343
5568,352
5569,359
5570,368
5571,373
5572,380
5573,376
5574,368
5575,360
5576,353
5577,338
5578,329
5579,318
5580,314
5581,310
5582,311
5583,309
5584,313
5585,313
5586,315
5587,316
5588,319
5589,320
5590,322
5591,321
5592,318
5593,321
5594,321
5595,318
5596,319
5597,320
5598,317
5599,317
5600,312
5601,313
5602,319
5603,333
5604,326
5605,315
5606,312
5607,316
5608,316
5609,317
5610,307
5611,285
5612,485
5613,675
5614,654
5615,278
5616,311
5617,315
5618,307
5619,311
5620,311
5621,318
5622,322
5623,330
5624,335
5625,341
5626,351
5627,363
5628,366
5629,373
5630,369
5631,360
5632,352
5633,340
5634,329
5635,315
5636,308
5637,300
5638,300
5639,303
5640,303
5641,303
5642,309
5643,309
5644,312
5645,317
5646,321
5647,320
5648,327
5649,324
5650,327
5651,327
5652,328
5653,326
5654,327
5655,320
5656,324
5657,329
5658,343
5659,330
5660,324
5661,324
5662,328
5663,329
5664,331
5665,322
5666,310
5667,544
5668,673
5669,560
5670,286
5671,339
5672,333
5673,328
5674,330
5675,336
5676,338
5677,347
5678,352
5679,357
5680,363
5681,376
5682,384
5683,393
5684,395
5685,395
5686,383
5687,376
5688,363
5689,351
5690,336
5691,327
5692,320
5693,321
5694,323
5695,323
5696,327
5697,331
5698,333
5699,336
5700,334
5701,333
5702,336
5703,338
5704,337
5705,336
5706,339
5707,335
5708,336
5709,335
5710,334
5711,333
5712,336
5713,348
5714,353
5715,335
5716,336
5717,340
5718,341
5719,338
5720,339
5721,320
5722,439
5723,674
5724,633
5725,324
5726,339
5727,347
5728,339
5729,341
5730,345
5731,349
5732,354
5733,358
5734,364
5735,369
5736,381
5737,392
5738,400
5739,406
5740,403
5741,398
5742,389
5743,377
5744,362
5745,348
5746,336
5747,332
5748,329
5749,328
5750,330
5751,331
5752,333
5753,338
5754,337
5755,340
5756,341
5757,343
5758,340
5759,341
5760,342
5761,346
5762,342
5763,344
5764,342
5765,343
5766,337
5767,336
5768,338
5769,352
5770,354
5771,341
5772,338
5773,342
5774,339
5775,343
5776,341
5777,319
5778,418
5779,675
5780,675
5781,398
5782,320
5783,343
5784,335
5785,334
5786,336
5787,342
5788,345
5789,349
5790,354
5791,361
5792,369
5793,376
5794,386
5795,385
5796,388
5797,380
5798,370
5799,359
5800,350
5801,338
5802,327
5803,319
5804,316
5805,314
5806,316
5807,316
5808,322
5809,321
5810,326
5811,326
5812,326
5813,326
5814,328
5815,329
5816,329
5817,329
5818,328
5819,328
5820,325
5821,326
5822,324
5823,322
5824,321
5825,327
5826,337
5827,341
5828,322
5829,318
5830,320
5831,321
5832,320
5833,323
5834,292
5835,412
5836,675
5837,674
5838,341
5839,293
5840,323
5841,310
5842,309
5843,319
5844,319
5845,324
5846,329
5847,337
5848,345
5849,354
5850,362
5851,370
5852,374
5853,372
5854,365
5855,355
5856,343
5857,336
5858,323
5859,313
5860,310
5861,308
5862,307
5863,306
5864,310
5865,312
5866,317
5867,319
5868,325
5869,327
5870,331
5871,332
5872,335
5873,336
5874,334
5875,332
5876,333
5877,330
5878,331
5879,326
5880,331
5881,343
5882,344
5883,327
5884,329
5885,330
5886,330
5887,328
5888,329
5889,308
5890,428
5891,674
5892,642
5893,310
5894,322
5895,334
5896,325
5897,328
5898,330
5899,335
5900,340
5901,345
5902,351
5903,360
5904,366
5905,377
5906,384
5907,390
5908,389
5909,382
5910,368
5911,360
5912,343
5913,332
5914,321
5915,317
5916,313
5917,314
5918,315
5919,317
5920,316
5921,321
5922,323
5923,326
5924,325
5925,327
5926,325
5927,327
5928,327
5929,325
5930,326
5931,324
5932,326
5933,324
5934,319
5935,323
5936,333
5937,341
5938,328
5939,325
5940,326
5941,327
5942,329
5943,329
5944,312
5945,356
5946,671
5947,674
5948,460
5949,293
5950,338
5951,320
5952,321
5953,323
5954,329
5955,329
5956,337
5957,342
5958,347
5959,354
5960,364
5961,373
5962,380
5963,377
5964,375
5965,363
5966,354
5967,341
5968,331
5969,319
5970,312
5971,309
5972,309
5973,311
5974,311
5975,314
5976,316
5977,319
5978,320
5979,324
5980,321
5981,324
5982,324
5983,327
5984,324
5985,325
5986,325
5987,328
5988,321
5989,320
5990,323
5991,333
5992,342
5993,328
5994,322
5995,323
5996,327
5997,329
5998,327
5999,313
6000,351
6001,672
6002,675
6003,509
6004,287
6005,334
6006,318
6007,318
6008,322
6009,324
6010,331
6011,339
6012,345
6013,348
6014,356
6015,364
6016,371
6017,376
6018,377
6019,373
6020,365
6021,352
6022,344
6023,334
6024,327
6025,320
6026,320
6027,315
6028,319
6029,318
6030,322
6031,321
6032,329
6033,327
6034,331
6035,332
6036,333
6037,330
6038,335
6039,331
6040,331
6041,331
6042,331
6043,324
6044,323
6045,334
6046,347
6047,340
6048,327
6049,329
6050,328
6051,327
6052,329
6053,326
6054,305
6055,545
6056,676
6057,673
6058,306
6059,321
6060,322
6061,317
6062,315
6063,322
6064,323
6065,329
6066,333
6067,341
6068,344
6069,355
6070,361
6071,369
6072,368
6073,368
6074,355
