0,279
1,411
2,675
3,676
4,443
5,291
6,311
7,316
8,307
9,310
10,314
11,315
12,324
13,330
14,332
15,347
16,358
17,333
18,332
19,320
20,317
21,320
22,319
23,321
24,319
25,279
26,411
27,675
28,676
29,443
30,291
31,311
32,316
33,307
34,310
35,314
36,315
37,324
38,330
39,332
40,347
41,358
42,333
43,332
44,320
45,317
46,320
47,319
48,321
49,319
50,279
51,411
52,675
53,676
54,443
55,291
56,311
57,316
58,307
59,310
60,314
61,315
62,324
63,330
64,332
65,347
66,358
67,370
68,367
69,363
70,348
71,343
72,325
73,320
74,306
75,308
76,306
77,304
78,310
79,312
80,309
81,311
82,312
83,320
84,319
85,317
86,323
87,326
88,323
89,329
90,321
91,322
92,323
93,324
94,323
95,316
96,329
97,340
98,338
99,325
100,322
101,329
102,326
103,324
104,314
105,274
106,491
107,676
108,676
109,417
110,302
111,315
112,307
113,312
114,312
115,322
116,324
117,327
118,339
119,338
120,350
121,358
122,365
123,375
124,372
125,370
126,363
127,360
128,350
129,336
130,324
131,318
132,315
133,316
134,314
135,317
136,314
137,315
138,317
139,317
140,318
141,322
142,322
143,332
144,325
145,324
146,327
147,327
148,322
149,321
150,327
151,319
152,313
153,324
154,338
155,340
156,323
157,320
158,322
159,321
160,317
161,316
162,264
163,423
164,676
165,677
166,528
167,281
168,301
169,292
170,291
171,296
172,300
173,297
174,308
175,313
176,316
177,323
178,333
179,341
180,345
181,346
182,337
183,336
184,329
185,323
186,313
187,301
188,294
189,291
190,290
191,290
192,288
193,291
194,295
195,293
196,294
197,294
198,297
199,299
200,301
201,299
202,299
203,303
204,301
205,297
206,299
207,298
208,298
209,296
210,297
211,298
212,296
213,301
214,303
215,297
216,304
217,311
218,315
219,301
220,300
221,303
222,303
223,304
224,293
225,252
226,451
227,676
228,674
229,331
230,280
231,300
232,294
233,295
234,295
235,297
236,305
237,306
238,313
239,321
240,327
241,337
242,347
243,356
244,351
245,347
246,340
247,333
248,326
249,310
250,302
251,294
252,292
253,290
254,289
255,288
256,290
257,292
258,292
259,292
260,296
261,296
262,300
263,303
264,302
265,304
266,298
267,305
268,301
269,300
270,295
271,299
272,308
273,316
274,301
275,300
276,301
277,305
278,310
279,305
280,275
281,351
282,672
283,632
284,357
285,277
286,316
287,311
288,309
289,319
290,324
291,326
292,331
293,336
294,348
295,356
296,368
297,379
298,388
299,391
300,388
301,374
302,371
303,351
304,333
305,321
306,315
307,310
308,306
309,308
310,309
311,310
312,309
313,311
314,315
315,319
316,324
317,326
318,327
319,329
320,327
321,329
322,328
323,325
324,320
325,321
326,334
327,340
328,323
329,322
330,322
331,323
332,321
333,320
334,288
335,361
336,674
337,674
338,442
339,287
340,320
341,313
342,311
343,316
344,320
345,325
346,328
347,332
348,340
349,349
350,362
351,371
352,384
353,386
354,382
355,376
356,367
357,351
358,332
359,317
360,308
361,303
362,299
363,300
364,303
365,301
366,302
367,303
368,307
369,310
370,312
371,318
372,319
373,319
374,318
375,320
376,320
377,317
378,317
379,311
380,313
381,322
382,330
383,324
384,313
385,312
386,312
387,313
388,315
389,288
390,287
391,625
392,676
393,669
394,284
395,303
396,303
397,302
398,305
399,308
400,311
401,316
402,320
403,328
404,331
405,347
406,357
407,367
408,372
409,372
410,368
411,360
412,351
413,335
414,320
415,313
416,308
417,302
418,302
419,303
420,305
421,307
422,307
423,309
424,307
425,309
426,313
427,313
428,312
429,316
430,315
431,314
432,312
433,313
434,310
435,309
436,312
437,311
438,308
439,306
440,304
441,307
442,318
443,320
444,305
445,302
446,304
447,303
448,301
449,289
450,250
451,441
452,676
453,675
454,334
455,262
456,279
457,269
458,272
459,276
460,280
461,286
462,293
463,298
464,304
465,313
466,323
467,334
468,345
469,347
470,346
471,343
472,334
473,324
474,310
475,301
476,292
477,291
478,292
479,294
480,298
481,299
482,302
483,305
484,310
485,314
486,314
487,320
488,322
489,322
490,323
491,325
492,324
493,323
494,324
495,325
496,324
497,324
498,318
499,323
500,334
501,342
502,330
503,328
504,328
505,329
506,335
507,334
508,295
509,347
510,675
511,677
512,621
513,298
514,327
515,321
516,318
517,320
518,329
519,330
520,333
521,340
522,346
523,353
524,363
525,374
526,385
527,387
528,384
529,377
530,369
531,360
532,348
533,332
534,322
535,316
536,310
537,310
538,313
539,311
540,314
541,315
542,312
543,312
544,314
545,316
546,318
547,320
548,318
549,318
550,315
551,307
552,309
553,317
554,324
555,319
556,307
557,306
558,309
559,308
560,305
561,285
562,270
563,606
564,676
565,644
566,257
567,298
568,298
569,296
570,298
571,303
572,306
573,312
574,317
575,322
576,334
577,342
578,350
579,361
580,365
581,365
582,355
583,346
584,334
585,319
586,301
587,295
588,292
589,288
590,290
591,287
592,288
593,288
594,288
595,288
596,290
597,291
598,294
599,296
600,295
601,291
602,290
603,291
604,288
605,284
606,285
607,294
608,302
609,295
610,285
611,284
612,289
613,293
614,292
615,267
616,266
617,598
618,676
619,651
620,268
621,299
622,298
623,297
624,301
625,305
626,311
627,318
628,321
629,332
630,338
631,346
632,357
633,370
634,376
635,374
636,365
637,363
638,352
639,337
640,326
641,315
642,309
643,307
644,304
645,308
646,310
647,313
648,310
649,313
650,314
651,317
652,319
653,317
654,322
655,322
656,321
657,319
658,319
659,318
660,315
661,306
662,311
663,322
664,328
665,320
666,312
667,311
668,310
669,313
670,315
671,287
672,271
673,602
674,676
675,673
676,290
677,299
678,302
679,297
680,298
681,305
682,310
683,314
684,320
685,323
686,332
687,340
688,349
689,359
690,367
691,364
692,360
693,355
694,347
695,334
696,319
697,313
698,307
699,304
700,300
701,305
702,305
703,309
704,308
705,308
706,310
707,314
708,314
709,314
710,317
711,318
712,316
713,313
714,312
715,312
716,310
717,308
718,312
719,312
720,313
721,310
722,310
723,306
724,306
725,308
726,317
727,324
728,316
729,310
730,313
731,312
732,313
733,314
734,281
735,331
736,675
737,676
738,561
739,271
740,315
741,304
742,304
743,308
744,310
745,313
746,320
747,326
748,331
749,338
750,346
751,356
752,366
753,368
754,367
755,365
756,356
757,348
758,334
759,327
760,317
761,312
762,308
763,312
764,313
765,313
766,314
767,318
768,321
769,324
770,327
771,330
772,329
773,331
774,332
775,334
776,332
777,330
778,332
779,331
780,332
781,334
782,332
783,333
784,328
785,332
786,343
787,348
788,337
789,332
790,336
791,338
792,337
793,334
794,300
795,379
796,676
797,676
798,518
799,297
800,332
801,326
802,325
803,328
804,329
805,333
806,335
807,341
808,347
809,355
810,363
811,369
812,380
813,382
814,376
815,369
816,359
817,350
818,333
819,322
820,316
821,311
822,311
823,307
824,305
825,303
826,310
827,309
828,310
829,311
830,312
831,314
832,315
833,312
834,313
835,311
836,309
837,308
838,306
839,306
840,305
841,298
842,299
843,311
844,320
845,308
846,300
847,304
848,304
849,302
850,306
851,279
852,268
853,587
854,676
855,671
856,274
857,294
858,293
859,293
860,294
861,294
862,301
863,306
864,313
865,315
866,328
867,335
868,345
869,354
870,360
871,358
872,355
873,352
874,341
875,331
876,317
877,306
878,303
879,300
880,300
881,305
882,308
883,306
884,313
885,310
886,314
887,319
888,325
889,322
890,324
891,328
892,325
893,326
894,325
895,325
896,327
897,325
898,329
899,327
900,329
901,329
902,331
903,325
904,325
905,338
906,346
907,345
908,331
909,335
910,337
911,334
912,337
913,317
914,297
915,571
916,677
917,676
918,392
919,318
920,329
921,318
922,320
923,324
924,325
925,332
926,334
927,338
928,350
929,357
930,364
931,371
932,379
933,381
934,375
935,367
936,357
937,348
938,334
939,328
940,323
941,318
942,316
943,317
944,317
945,319
946,323
947,319
948,324
949,325
950,325
951,328
952,325
953,331
954,328
955,325
956,324
957,323
958,322
959,324
960,325
961,322
962,322
963,321
964,318
965,314
966,324
967,334
968,335
969,323
970,324
971,322
972,324
973,328
974,312
975,272
976,439
977,676
978,677
979,492
980,287
981,310
982,306
983,301
984,308
985,309
986,313
987,319
988,320
989,330
990,333
991,346
992,352
993,359
994,360
995,361
996,351
997,343
998,342
999,324
1000,320
1001,314
1002,309
1003,309
1004,311
1005,310
1006,309
1007,316
1008,317
1009,319
1010,318
1011,323
1012,320
1013,324
1014,321
1015,320
1016,321
1017,322
1018,318
1019,320
1020,320
1021,320
1022,316
1023,315
1024,326
1025,335
1026,335
1027,324
1028,323
1029,327
1030,325
1031,328
1032,309
1033,267
1034,532
1035,677
1036,676
1037,425
1038,300
1039,312
1040,304
1041,304
1042,310
1043,311
1044,316
1045,317
1046,329
1047,333
1048,342
1049,345
1050,355
1051,360
1052,360
1053,353
1054,345
1055,346
1056,334
1057,322
1058,319
1059,314
1060,308
1061,307
1062,308
1063,311
1064,312
1065,318
1066,318
1067,320
1068,320
1069,322
1070,321
1071,320
1072,320
1073,323
1074,318
1075,321
1076,319
1077,325
1078,319
1079,318
1080,315
1081,323
1082,338
1083,341
1084,323
1085,323
1086,325
1087,321
1088,325
1089,323
1090,277
1091,351
1092,675
1093,677
1094,628
1095,293
1096,308
1097,302
1098,300
1099,303
1100,302
1101,306
1102,311
1103,314
1104,320
1105,327
1106,335
1107,342
1108,345
1109,344
1110,339
1111,334
1112,327
1113,328
1114,322
1115,311
1116,305
1117,303
1118,302
1119,301
1120,304
1121,305
1122,307
1123,308
1124,308
1125,309
1126,310
1127,308
1128,307
1129,304
1130,305
1131,303
1132,302
1133,299
1134,297
1135,298
1136,307
1137,315
1138,302
1139,297
1140,300
1141,301
1142,301
1143,298
1144,267
1145,310
1146,674
1147,676
1148,503
1149,251
1150,299
1151,287
1152,286
1153,295
1154,295
1155,299
1156,308
1157,313
1158,319
1159,328
1160,337
1161,346
1162,354
1163,355
1164,346
1165,341
1166,332
1167,324
1168,315
1169,307
1170,300
1171,300
1172,298
1173,302
1174,301
1175,302
1176,309
1177,312
1178,313
1179,315
1180,316
1181,317
1182,317
1183,322
1184,321
1185,321
1186,317
1187,314
1188,324
1189,333
1190,328
1191,320
1192,319
1193,321
1194,323
1195,325
1196,314
1197,286
1198,522
1199,675
1200,614
1201,283
1202,322
1203,325
1204,322
1205,328
1206,330
1207,333
1208,338
1209,345
1210,351
1211,355
1212,366
1213,376
1214,387
1215,390
1216,385
1217,378
1218,370
1219,359
1220,349
1221,337
1222,331
1223,324
1224,322
1225,325
1226,325
1227,330
1228,328
1229,329
1230,330
1231,335
1232,339
1233,340
1234,341
1235,341
1236,341
1237,339
1238,336
1239,334
1240,344
1241,350
1242,339
1243,332
1244,335
1245,336
1246,335
1247,334
1248,316
1249,326
1250,640
1251,675
1252,530
1253,283
1254,332
1255,324
1256,321
1257,328
1258,327
1259,333
1260,338
1261,342
1262,349
1263,356
1264,365
1265,375
1266,383
1267,383
1268,379
1269,374
1270,363
1271,346
1272,334
1273,325
1274,321
1275,314
1276,315
1277,317
1278,318
1279,322
1280,324
1281,327
1282,329
1283,332
1284,335
1285,337
1286,337
1287,335
1288,337
1289,336
1290,331
1291,328
1292,330
1293,342
1294,346
1295,331
1296,329
1297,330
1298,329
1299,331
1300,332
1301,305
1302,318
1303,671
1304,676
1305,601
1306,287
1307,328
1308,319
1309,317
1310,321
1311,327
1312,329
1313,332
1314,337
1315,345
1316,351
1317,359
1318,368
1319,375
1320,375
1321,370
1322,367
1323,359
1324,350
1325,342
1326,331
1327,322
1328,322
1329,320
1330,320
1331,320
1332,324
1333,327
1334,328
1335,330
1336,329
1337,332
1338,333
1339,330
1340,331
1341,332
1342,330
1343,330
1344,329
1345,328
1346,328
1347,325
1348,322
1349,320
1350,325
1351,337
1352,342
1353,325
1354,324
1355,326
1356,327
1357,329
1358,326
1359,297
1360,315
1361,673
1362,676
1363,642
1364,289
1365,320
1366,317
1367,312
1368,316
1369,319
1370,320
1371,325
1372,330
1373,337
1374,343
1375,351
1376,361
1377,366
1378,369
1379,365
1380,357
1381,350
1382,342
1383,336
1384,328
1385,323
1386,322
1387,320
1388,317
1389,319
1390,323
1391,322
1392,324
1393,328
1394,329
1395,329
1396,329
1397,330
1398,329
1399,329
1400,326
1401,326
1402,327
1403,324
1404,323
1405,324
1406,321
1407,323
1408,325
1409,322
1410,323
1411,321
1412,323
1413,321
1414,323
1415,321
1416,318
1417,320
1418,331
1419,336
1420,327
1421,322
1422,322
1423,324
1424,324
1425,321
1426,289
1427,346
1428,675
1429,675
1430,521
1431,277
1432,319
1433,309
1434,308
1435,313
1436,314
1437,318
1438,327
1439,331
1440,336
1441,341
1442,350
1443,357
1444,365
1445,364
1446,361
1447,353
1448,342
1449,335
1450,328
1451,322
1452,317
1453,311
1454,313
1455,316
1456,312
1457,317
1458,318
1459,318
1460,324
1461,326
1462,330
1463,330
1464,331
1465,334
1466,330
1467,333
1468,330
1469,329
1470,330
1471,333
1472,331
1473,329
1474,331
1475,333
1476,331
1477,325
1478,332
1479,342
1480,351
1481,344
1482,337
1483,337
1484,341
1485,340
1486,343
1487,324
1488,304
1489,593
1490,676
1491,669
1492,309
1493,333
1494,335
1495,334
1496,336
1497,343
1498,346
1499,349
1500,353
1501,358
1502,366
1503,370
1504,381
1505,389
1506,391
1507,389
1508,377
1509,369
1510,361
1511,349
1512,339
1513,333
1514,331
1515,327
1516,327
1517,329
1518,329
1519,330
1520,334
1521,335
1522,337
1523,339
1524,342
1525,342
1526,341
1527,342
1528,340
1529,339
1530,335
1531,338
1532,337
1533,331
1534,328
1535,336
1536,346
1537,344
1538,328
1539,328
1540,326
1541,330
1542,329
1543,321
1544,280
1545,423
1546,676
1547,676
1548,431
1549,294
1550,319
1551,309
1552,311
1553,312
1554,315
1555,317
1556,323
1557,329
1558,335
1559,343
1560,350
1561,358
1562,365
1563,364
1564,359
1565,350
1566,344
1567,332
1568,320
1569,312
1570,307
1571,303
1572,302
1573,303
1574,304
1575,306
1576,308
1577,309
1578,312
1579,310
1580,311
1581,312
1582,314
1583,311
1584,312
1585,312
1586,312
1587,310
1588,306
1589,306
1590,319
1591,328
1592,318
1593,309
1594,308
1595,311
1596,312
1597,315
1598,295
1599,265
1600,547
1601,676
1602,674
1603,295
1604,300
1605,303
1606,297
1607,297
1608,301
1609,305
1610,307
1611,312
1612,319
1613,330
1614,338
1615,346
1616,353
1617,357
1618,355
1619,349
1620,340
1621,335
1622,323
1623,311
1624,306
1625,300
1626,299
1627,298
1628,300
1629,304
1630,306
1631,307
1632,310
1633,311
1634,315
1635,316
1636,318
1637,319
1638,317
1639,320
1640,320
1641,319
1642,317
1643,316
1644,319
1645,330
1646,336
1647,326
1648,324
1649,326
1650,329
1651,328
1652,332
1653,314
1654,289
1655,603
1656,676
1657,660
1658,293
1659,326
1660,329
1661,326
1662,331
1663,338
1664,342
1665,347
1666,354
1667,361
1668,368
1669,376
1670,391
1671,399
1672,400
1673,395
1674,386
1675,382
1676,372
1677,360
1678,349
1679,344
1680,341
1681,341
1682,341
1683,342
1684,341
1685,349
1686,347
1687,350
1688,354
1689,356
1690,355
1691,357
1692,359
1693,357
1694,355
1695,354
1696,351
1697,347
1698,347
1699,352
1700,362
1701,356
1702,345
1703,346
1704,347
1705,347
1706,344
1707,336
1708,297
1709,490
1710,676
1711,675
1712,377
1713,319
1714,335
1715,325
1716,327
1717,332
1718,334
1719,338
1720,340
1721,348
1722,353
1723,362
1724,374
1725,380
1726,382
1727,382
1728,374
1729,365
1730,356
1731,346
1732,336
1733,325
1734,320
1735,320
1736,318
1737,318
1738,320
1739,324
1740,324
1741,326
1742,329
1743,331
1744,332
1745,331
1746,332
1747,331
1748,331
1749,330
1750,327
1751,325
1752,328
1753,336
1754,342
1755,329
1756,324
1757,326
1758,327
1759,328
1760,329
1761,305
1762,293
1763,611
1764,676
1765,673
1766,306
1767,320
1768,315
1769,309
1770,315
1771,316
1772,321
1773,329
1774,332
1775,339
1776,348
1777,354
1778,363
1779,371
1780,373
1781,368
1782,361
1783,353
1784,345
1785,336
1786,327
1787,320
1788,317
1789,316
1790,318
1791,318
1792,318
1793,321
1794,324
1795,326
1796,326
1797,326
1798,325
1799,326
1800,325
1801,325
1802,324
1803,323
1804,324
1805,319
1806,318
1807,321
1808,333
1809,340
1810,325
1811,319
1812,320
1813,322
1814,321
1815,320
1816,290
1817,308
1818,669
1819,677
1820,626
1821,277
1822,313
1823,306
1824,302
1825,304
1826,309
1827,313
1828,315
1829,321
1830,328
1831,336
1832,343
1833,353
1834,361
1835,359
1836,354
1837,347
1838,339
1839,332
1840,321
1841,311
1842,306
1843,304
1844,303
1845,299
1846,303
1847,307
1848,308
1849,310
1850,310
1851,312
1852,313
1853,313
1854,313
1855,313
1856,312
1857,311
1858,312
1859,310
1860,306
1861,306
1862,305
1863,316
1864,324
1865,316
1866,308
1867,308
1868,309
1869,312
1870,314
1871,303
1872,265
1873,495
1874,676
1875,665
1876,290
1877,305
1878,316
1879,313
1880,316
1881,318
1882,324
1883,329
1884,335
1885,340
1886,346
1887,357
1888,367
1889,377
1890,378
1891,373
1892,364
1893,358
1894,351
1895,341
1896,331
1897,325
1898,320
1899,321
1900,323
1901,323
1902,324
1903,328
1904,332
1905,330
1906,335
1907,338
1908,338
1909,337
1910,336
1911,335
1912,334
1913,333
1914,330
1915,328
1916,324
1917,328
1918,337
1919,346
1920,332
1921,328
1922,327
1923,329
1924,333
1925,331
1926,311
1927,322
1928,650
1929,676
1930,579
1931,292
1932,332
1933,328
1934,326
1935,325
1936,328
1937,334
1938,339
1939,341
1940,350
1941,357
1942,364
1943,374
1944,382
1945,382
1946,375
1947,367
1948,360
1949,350
1950,337
1951,328
1952,325
1953,321
1954,323
1955,324
1956,323
1957,327
1958,331
1959,330
1960,329
1961,332
1962,336
1963,332
1964,331
1965,330
1966,332
1967,331
1968,330
1969,329
1970,325
1971,327
1972,332
1973,346
1974,340
1975,328
1976,328
1977,333
1978,331
1979,332
1980,322
1981,293
1982,502
1983,676
1984,674
1985,327
1986,318
1987,325
1988,317
1989,319
1990,323
1991,326
1992,329
1993,333
1994,342
1995,348
1996,356
1997,363
1998,372
1999,374
2000,369
2001,361
2002,353
2003,345
2004,335
2005,326
2006,320
2007,321
2008,316
2009,317
2010,319
2011,320
2012,324
2013,325
2014,324
2015,328
2016,327
2017,324
2018,324
2019,325
2020,321
2021,323
2022,323
2023,321
2024,321
2025,316
2026,313
2027,318
2028,326
2029,333
2030,320
2031,316
2032,315
2033,316
2034,319
2035,318
2036,290
2037,326
2038,671
2039,675
2040,529
2041,273
2042,314
2043,304
2044,303
2045,304
2046,306
2047,311
2048,313
2049,320
2050,324
2051,333
2052,337
2053,343
2054,348
2055,345
2056,341
2057,333
2058,325
2059,320
2060,311
2061,304
2062,303
2063,300
2064,300
2065,301
2066,304
2067,305
2068,306
2069,311
2070,311
2071,313
2072,311
2073,312
2074,312
2075,312
2076,309
2077,309
2078,307
2079,306
2080,304
2081,303
2082,307
2083,321
2084,326
2085,312
2086,306
2087,310
2088,309
2089,313
2090,310
2091,281
2092,335
2093,674
2094,676
2095,522
2096,271
2097,317
2098,303
2099,296
2100,302
2101,308
2102,312
2103,317
2104,320
2105,329
2106,334
2107,343
2108,350
2109,353
2110,351
2111,343
2112,336
2113,330
2114,328
2115,322
2116,318
2117,315
2118,313
2119,311
2120,313
2121,316
2122,317
2123,318
2124,322
2125,322
2126,322
2127,322
2128,324
2129,325
2130,325
2131,321
2132,323
2133,324
2134,318
2135,316
2136,326
2137,336
2138,333
2139,324
2140,319
2141,321
2142,325
2143,325
2144,318
2145,279
2146,481
2147,676
2148,676
2149,378
2150,300
2151,322
2152,311
2153,314
2154,317
2155,323
2156,330
2157,334
2158,341
2159,347
2160,357
2161,364
2162,369
2163,370
2164,364
2165,356
2166,350
2167,347
2168,344
2169,336
2170,335
2171,332
2172,332
2173,329
2174,331
2175,332
2176,335
2177,337
2178,338
2179,337
2180,337
2181,336
2182,334
2183,335
2184,334
2185,336
2186,330
2187,331
2188,329
2189,335
2190,344
2191,335
2192,326
2193,324
2194,324
2195,324
2196,325
2197,320
2198,284
2199,481
2200,676
2201,675
2202,331
2203,301
2204,316
2205,307
2206,309
2207,313
2208,318
2209,321
2210,326
2211,332
2212,341
2213,349
2214,356
2215,362
2216,360
2217,356
2218,346
2219,337
2220,334
2221,325
2222,321
2223,315
2224,315
2225,314
2226,314
2227,314
2228,316
2229,319
2230,322
2231,325
2232,330
2233,329
2234,329
2235,329
2236,330
2237,331
2238,329
2239,324
2240,328
2241,334
2242,341
2243,326
2244,323
2245,323
2246,328
2247,330
2248,327
2249,306
2250,350
2251,674
2252,675
2253,478
2254,283
2255,329
2256,317
2257,318
2258,322
2259,326
2260,327
2261,335
2262,338
2263,345
2264,351
2265,361
2266,370
2267,374
2268,368
2269,362
2270,351
2271,345
2272,336
2273,327
2274,323
2275,324
2276,323
2277,321
2278,321
2279,326
2280,326
2281,326
2282,330
2283,332
2284,332
2285,331
2286,337
2287,333
2288,332
2289,328
2290,327
2291,327
2292,337
2293,342
2294,329
2295,325
2296,326
2297,323
2298,324
2299,325
2300,307
2301,310
2302,604
2303,676
2304,615
2305,283
2306,324
2307,315
2308,310
2309,311
2310,318
2311,319
2312,326
2313,328
2314,337
2315,342
2316,347
2317,358
2318,363
2319,360
2320,357
2321,347
2322,342
2323,335
2324,325
2325,319
2326,316
2327,315
2328,313
2329,316
2330,317
2331,322
2332,324
2333,326
2334,324
2335,325
2336,325
2337,324
2338,323
2339,321
2340,324
2341,319
2342,317
2343,320
2344,329
2345,338
2346,326
2347,321
2348,320
2349,322
2350,322
2351,324
2352,300
2353,342
2354,674
2355,676
2356,584
2357,284
2358,319
2359,309
2360,305
2361,309
2362,312
2363,316
2364,319
2365,326
2366,331
2367,336
2368,344
2369,350
2370,353
2371,351
2372,345
2373,338
2374,333
2375,328
2376,324
2377,320
2378,317
2379,317
2380,316
2381,317
2382,319
2383,321
2384,322
2385,324
2386,322
2387,321
2388,322
2389,319
2390,320
2391,319
2392,315
2393,313
2394,310
2395,311
2396,324
2397,328
2398,313
2399,308
2400,311
2401,310
2402,310
2403,307
2404,282
2405,337
2406,675
2407,676
2408,525
2409,257
2410,300
2411,287
2412,286
2413,290
2414,289
2415,289
2416,296
2417,298
2418,302
2419,308
2420,317
2421,322
2422,319
2423,314
2424,308
2425,300
2426,296
2427,292
2428,290
2429,284
2430,285
2431,279
2432,281
2433,285
2434,286
2435,291
2436,293
2437,295
2438,299
2439,300
2440,301
2441,297
2442,299
2443,303
2444,296
2445,295
2446,305
2447,311
2448,314
2449,305
2450,306
2451,305
2452,308
2453,306
2454,307
2455,300
2456,292
2457,597
2458,675
2459,590
2460,257
2461,313
2462,308
2463,309
2464,312
2465,315
2466,322
2467,325
2468,331
2469,339
2470,346
2471,352
2472,361
2473,365
2474,362
2475,353
2476,344
2477,340
2478,333
2479,328
2480,324
2481,325
2482,323
2483,327
2484,327
2485,329
2486,329
2487,335
2488,340
2489,340
2490,341
2491,342
2492,343
2493,344
2494,342
2495,342
2496,336
2497,338
2498,345
2499,352
2500,347
2501,336
2502,336
2503,335
2504,338
2505,336
2506,331
2507,303
2508,518
2509,676
2510,675
2511,355
2512,322
2513,332
2514,324
2515,324
2516,331
2517,331
2518,339
2519,342
2520,351
2521,356
2522,361
2523,366
2524,373
2525,375
2526,369
2527,360
2528,354
2529,347
2530,340
2531,334
2532,331
2533,335
2534,329
2535,328
2536,331
2537,331
2538,334
2539,337
2540,336
2541,340
2542,337
2543,334
2544,334
2545,336
2546,334
2547,335
2548,327
2549,332
2550,341
2551,347
2552,330
2553,329
2554,328
2555,329
2556,326
2557,329
2558,305
2559,352
2560,675
2561,676
2562,578
2563,286
2564,322
2565,311
2566,309
2567,314
2568,316
2569,318
2570,324
2571,330
2572,336
2573,342
2574,352
2575,355
2576,357
2577,353
2578,345
2579,340
2580,335
2581,333
2582,325
2583,321
2584,318
2585,317
2586,319
2587,319
2588,321
2589,322
2590,325
2591,328
2592,328
2593,328
2594,329
2595,329
2596,330
2597,325
2598,324
2599,322
2600,326
2601,338
2602,341
2603,324
2604,321
2605,323
2606,324
2607,326
2608,321
2609,288
2610,359
2611,675
2612,677
2613,559
2614,279
2615,314
2616,303
2617,303
2618,303
2619,309
2620,310
2621,316
2622,321
2623,326
2624,334
2625,340
2626,343
2627,344
2628,339
2629,332
2630,324
2631,320
2632,319
2633,316
2634,312
2635,309
2636,309
2637,309
2638,309
2639,315
2640,315
2641,318
2642,319
2643,318
2644,322
2645,320
2646,318
2647,317
2648,315
2649,314
2650,309
2651,311
2652,320
2653,324
2654,319
2655,310
2656,310
2657,310
2658,313
2659,311
2660,299
2661,277
2662,522
2663,676
2664,669
2665,275
2666,299
2667,303
2668,296
2669,300
2670,304
2671,308
2672,310
2673,318
2674,325
2675,332
2676,340
2677,349
2678,351
2679,351
2680,346
2681,338
2682,331
2683,324
2684,320
2685,311
2686,309
2687,307
2688,311
2689,309
2690,312
2691,315
2692,318
2693,322
2694,325
2695,329
2696,330
2697,331
2698,330
2699,331
2700,329
2701,327
2702,333
2703,340
2704,342
2705,331
2706,327
2707,328
2708,333
2709,333
2710,331
2711,313
2712,341
2713,672
2714,675
2715,524
2716,280
2717,330
2718,322
2719,322
2720,323
2721,326
2722,332
2723,337
2724,341
2725,350
2726,360
2727,369
2728,372
2729,377
2730,375
2731,367
2732,356
2733,350
2734,343
2735,336
2736,331
2737,327
2738,325
2739,325
2740,326
2741,329
2742,331
2743,333
2744,333
2745,337
2746,338
2747,339
2748,341
2749,339
2750,340
2751,337
2752,335
2753,338
2754,344
2755,349
2756,336
2757,332
2758,332
2759,331
2760,332
2761,332
2762,305
2763,354
2764,675
2765,676
2766,558
2767,287
2768,326
2769,316
2770,314
2771,319
2772,321
2773,326
2774,331
2775,337
2776,344
2777,351
2778,360
2779,366
2780,370
2781,369
2782,360
2783,355
2784,349
2785,342
2786,330
2787,325
2788,320
2789,318
2790,318
2791,320
2792,323
2793,325
2794,329
2795,329
2796,330
2797,332
2798,332
2799,331
2800,333
2801,333
2802,329
2803,327
2804,326
2805,331
2806,341
2807,345
2808,329
2809,327
2810,327
2811,326
2812,328
2813,326
2814,287
2815,397
2816,676
2817,676
2818,514
2819,286
2820,317
2821,308
2822,306
2823,310
2824,311
2825,317
2826,319
2827,323
2828,331
2829,338
2830,345
2831,351
2832,354
2833,352
2834,345
2835,337
2836,333
2837,327
2838,317
2839,311
2840,306
2841,305
2842,304
2843,306
2844,307
2845,309
2846,310
2847,315
2848,314
2849,314
2850,315
2851,316
2852,313
2853,314
2854,313
2855,313
2856,309
2857,305
2858,307
2859,315
2860,324
2861,321
2862,309
2863,310
2864,311
2865,313
2866,316
2867,303
2868,265
2869,470
2870,676
2871,675
2872,324
2873,295
2874,311
2875,301
2876,304
2877,309
2878,311
2879,318
2880,326
2881,333
2882,338
2883,346
2884,355
2885,361
2886,362
2887,356
2888,348
2889,341
2890,335
2891,330
2892,323
2893,318
2894,317
2895,315
2896,316
2897,318
2898,319
2899,323
2900,324
2901,327
2902,330
2903,334
2904,334
2905,335
2906,335
2907,334
2908,336
2909,334
2910,334
2911,331
2912,329
2913,334
2914,345
2915,345
2916,329
2917,330
2918,331
2919,332
2920,330
2921,326
2922,284
2923,397
2924,675
2925,676
2926,492
2927,298
2928,323
2929,313
2930,315
2931,317
2932,319
2933,327
2934,330
2935,336
2936,343
2937,351
2938,359
2939,366
2940,371
2941,369
2942,363
2943,356
2944,352
2945,344
2946,334
2947,323
2948,320
2949,319
2950,320
2951,319
2952,320
2953,323
2954,325
2955,327
2956,326
2957,329
2958,330
2959,329
2960,330
2961,331
2962,330
2963,329
2964,329
2965,329
2966,325
2967,323
2968,327
2969,339
2970,339
2971,324
2972,324
2973,325
2974,326
2975,327
2976,326
2977,284
2978,367
2979,675
2980,677
2981,572
2982,292
2983,323
2984,312
2985,312
2986,313
2987,319
2988,322
2989,328
2990,333
2991,339
2992,346
2993,355
2994,363
2995,368
2996,365
2997,361
2998,355
2999,350
3000,341
3001,334
3002,324
3003,322
3004,319
3005,316
3006,316
3007,317
3008,317
3009,319
3010,319
3011,321
3012,324
3013,326
3014,326
3015,325
3016,324
3017,325
3018,324
3019,320
3020,322
3021,320
3022,321
3023,317
3024,313
3025,314
3026,327
3027,331
3028,319
3029,313
3030,316
3031,315
3032,317
3033,317
3034,292
3035,283
3036,624
3037,676
3038,655
3039,278
3040,311
3041,306
3042,304
3043,305
3044,311
3045,312
3046,319
3047,325
3048,327
3049,337
3050,344
3051,352
3052,356
3053,359
3054,354
3055,348
3056,341
3057,332
3058,321
3059,312
3060,306
3061,304
3062,303
3063,301
3064,301
3065,306
3066,307
3067,308
3068,311
3069,317
3070,319
3071,322
3072,325
3073,324
3074,326
3075,328
3076,325
3077,327
3078,323
3079,322
3080,325
3081,335
3082,342
3083,331
3084,326
3085,329
3086,328
3087,330
3088,332
3089,311
3090,288
3091,593
3092,676
3093,656
3094,291
3095,326
3096,324
3097,319
3098,323
3099,329
3100,332
3101,336
3102,341
3103,348
3104,357
3105,366
3106,375
3107,380
3108,382
3109,378
3110,371
3111,363
3112,352
3113,340
3114,331
3115,327
3116,325
3117,323
3118,322
3119,325
3120,325
3121,328
3122,328
3123,330
3124,337
3125,336
3126,337
3127,340
3128,340
3129,339
3130,339
3131,338
3132,336
3133,336
3134,330
3135,328
3136,330
3137,345
3138,351
3139,336
3140,330
3141,330
3142,329
3143,330
3144,331
3145,307
3146,295
3147,626
3148,676
3149,673
3150,313
3151,322
3152,320
3153,317
3154,316
3155,323
3156,327
3157,332
3158,338
3159,343
3160,347
3161,357
3162,365
3163,372
3164,375
3165,371
3166,366
3167,358
3168,351
3169,340
3170,331
3171,322
3172,321
3173,319
3174,318
3175,320
3176,324
3177,325
3178,325
3179,325
3180,329
3181,329
3182,329
3183,330
3184,330
3185,330
3186,330
3187,330
3188,329
3189,330
3190,324
3191,322
3192,328
3193,337
3194,340
3195,326
3196,323
3197,325
3198,327
3199,325
3200,328
3201,290
3202,322
3203,674
3204,677
3205,639
3206,291
3207,318
3208,313
3209,310
3210,312
3211,316
3212,318
3213,325
3214,330
3215,336
3216,344
3217,352
3218,360
3219,364
3220,364
3221,359
3222,353
3223,347
3224,337
3225,325
3226,319
3227,314
3228,309
3229,306
3230,307
3231,308
3232,311
3233,312
3234,311
3235,312
3236,315
3237,315
3238,316
3239,314
3240,314
3241,315
3242,313
3243,313
3244,312
3245,312
3246,312
3247,309
3248,308
3249,308
3250,319
3251,329
3252,315
3253,310
3254,312
3255,313
3256,314
3257,317
3258,299
3259,270
3260,570
3261,676
3262,666
3263,281
3264,308
3265,309
3266,304
3267,311
3268,313
3269,316
3270,320
3271,325
3272,330
3273,339
3274,348
3275,357
3276,365
3277,368
3278,364
3279,357
3280,352
3281,344
3282,331
3283,322
3284,318
3285,314
3286,313
3287,313
3288,314
3289,314
3290,315
3291,320
3292,325
3293,327
3294,330
3295,332
3296,335
3297,336
3298,335
3299,336
3300,335
3301,336
3302,332
3303,329
3304,330
3305,342
3306,347
3307,332
3308,330
3309,331
3310,332
3311,335
3312,334
3313,311
3314,310
3315,642
3316,676
3317,647
3318,296
3319,332
3320,326
3321,323
3322,323
3323,326
3324,330
3325,337
3326,342
3327,349
3328,356
3329,364
3330,375
3331,380
3332,382
3333,378
3334,370
3335,359
3336,350
3337,337
3338,327
3339,318
3340,314
3341,313
3342,314
3343,313
3344,317
3345,317
3346,316
3347,319
3348,319
3349,320
3350,319
3351,322
3352,321
3353,319
3354,319
3355,318
3356,318
3357,316
3358,317
3359,311
3360,308
3361,316
3362,323
3363,329
3364,311
3365,312
3366,313
3367,311
3368,315
3369,312
3370,275
3371,336
3372,675
3373,676
3374,564
3375,277
3376,315
3377,304
3378,300
3379,307
3380,310
3381,315
3382,319
3383,329
3384,333
3385,342
3386,350
3387,361
3388,369
3389,370
3390,368
3391,362
3392,357
3393,347
3394,338
3395,329
3396,322
3397,320
3398,318
3399,321
3400,322
3401,326
3402,331
3403,334
3404,335
3405,337
3406,339
3407,340
3408,342
3409,341
3410,344
3411,346
3412,344
3413,342
3414,343
3415,343
3416,344
3417,338
3418,340
3419,352
3420,360
3421,348
3422,340
3423,343
3424,342
3425,345
3426,344
3427,330
3428,286
3429,515
3430,677
3431,677
3432,439
3433,316
3434,332
3435,324
3436,323
3437,327
3438,331
3439,335
3440,340
3441,346
3442,352
3443,359
3444,367
3445,375
3446,377
3447,376
3448,366
3449,362
3450,355
3451,345
3452,333
3453,325
3454,320
3455,317
3456,313
3457,315
3458,318
3459,321
3460,321
3461,322
3462,323
3463,324
3464,323
3465,323
3466,322
3467,325
3468,321
3469,320
3470,319
3471,318
3472,318
3473,318
3474,317
3475,313
3476,310
3477,320
3478,329
3479,323
3480,313
3481,316
3482,315
3483,317
3484,317
3485,312
3486,267
3487,418
3488,676
3489,675
3490,378
3491,288
3492,314
3493,303
3494,303
3495,307
3496,311
3497,314
3498,320
3499,325
3500,334
3501,342
3502,352
3503,359
3504,367
3505,362
3506,357
3507,349
3508,343
3509,333
3510,320
3511,311
3512,306
3513,302
3514,306
3515,305
3516,304
3517,307
3518,312
3519,315
3520,317
3521,320
3522,323
3523,328
3524,329
3525,331
3526,332
3527,334
3528,332
3529,329
3530,327
3531,328
3532,341
3533,343
3534,329
3535,326
3536,327
3537,329
3538,330
3539,333
3540,307
3541,315
3542,661
3543,676
3544,603
3545,288
3546,335
3547,326
3548,324
3549,328
3550,330
3551,336
3552,340
3553,345
3554,352
3555,363
3556,371
3557,380
3558,388
3559,389
3560,383
3561,375
3562,366
3563,357
3564,343
3565,331
3566,323
3567,321
3568,317
3569,319
3570,320
3571,321
3572,324
3573,327
3574,327
3575,329
3576,333
3577,333
3578,335
3579,337
3580,338
3581,336
3582,336
3583,331
3584,327
3585,332
3586,343
3587,348
3588,335
3589,331
3590,329
3591,329
3592,329
3593,330
3594,304
3595,299
3596,632
3597,676
3598,666
3599,298
3600,323
3601,319
3602,314
3603,317
3604,320
3605,324
3606,328
3607,333
3608,343
3609,352
3610,356
3611,368
3612,376
3613,381
3614,375
3615,369
3616,363
3617,352
3618,336
3619,326
3620,319
3621,314
3622,314
3623,313
3624,314
3625,317
3626,320
3627,322
3628,324
3629,324
3630,326
3631,326
3632,326
3633,328
3634,326
3635,328
3636,328
3637,325
3638,322
3639,325
3640,336
3641,344
3642,332
3643,324
3644,324
3645,323
3646,325
3647,326
3648,310
3649,282
3650,564
3651,677
3652,675
3653,328
3654,311
3655,315
3656,308
3657,311
3658,314
3659,318
3660,322
3661,328
3662,334
3663,339
3664,348
3665,360
3666,368
3667,372
3668,369
3669,361
3670,354
3671,344
3672,332
3673,319
3674,311
3675,304
3676,305
3677,305
3678,304
3679,308
3680,310
3681,311
3682,311
3683,315
3684,314
3685,316
3686,318
3687,317
3688,318
3689,319
3690,317
3691,317
3692,313
3693,312
3694,313
3695,323
3696,328
3697,319
3698,312
3699,313
3700,315
3701,316
3702,314
3703,301
3704,268
3705,527
3706,676
3707,672
3708,294
3709,302
3710,312
3711,305
3712,309
3713,311
3714,315
3715,320
3716,325
3717,331
3718,339
3719,348
3720,359
3721,366
3722,370
3723,368
3724,364
3725,354
3726,343
3727,330
3728,319
3729,312
3730,307
3731,308
3732,308
3733,310
3734,312
3735,314
3736,317
3737,322
3738,323
3739,326
3740,330
3741,332
3742,334
3743,335
3744,335
3745,335
3746,334
3747,331
3748,328
3749,332
3750,343
3751,349
3752,333
3753,332
3754,334
3755,336
3756,337
3757,337
3758,313
3759,308
3760,629
3761,676
3762,664
3763,304
3764,334
3765,331
3766,326
3767,331
3768,334
3769,337
3770,342
3771,348
3772,352
3773,361
3774,368
3775,379
3776,387
3777,390
3778,385
3779,378
3780,371
3781,359
3782,345
3783,335
3784,327
3785,323
3786,320
3787,319
3788,322
3789,323
3790,325
3791,328
3792,330
3793,332
3794,334
3795,336
3796,337
3797,337
3798,338
3799,338
3800,339
3801,336
3802,336
3803,334
3804,328
3805,330
3806,340
3807,348
3808,340
3809,330
3810,331
3811,331
3812,333
3813,333
3814,321
3815,279
3816,483
3817,676
3818,676
3819,419
3820,307
3821,326
3822,319
3823,320
3824,320
3825,325
3826,330
3827,334
3828,340
3829,346
3830,354
3831,363
3832,373
3833,376
3834,376
3835,374
3836,366
3837,357
3838,345
3839,335
3840,325
3841,318
3842,315
3843,317
3844,316
3845,319
3846,318
3847,322
3848,323
3849,322
3850,324
3851,327
3852,327
3853,328
3854,329
3855,329
3856,328
3857,327
3858,327
3859,325
3860,325
3861,326
3862,326
3863,323
3864,323
3865,331
3866,339
3867,340
3868,325
3869,323
3870,326
3871,327
3872,326
3873,324
3874,287
3875,333
3876,675
3877,677
3878,615
3879,284
3880,318
3881,307
3882,304
3883,306
3884,310
3885,312
3886,315
3887,323
3888,327
3889,332
3890,343
3891,352
3892,356
3893,359
3894,355
3895,353
3896,343
3897,332
3898,320
3899,310
3900,300
3901,296
3902,295
3903,294
3904,296
3905,296
3906,301
3907,302
3908,303
3909,306
3910,307
3911,308
3912,309
3913,312
3914,313
3915,313
3916,311
3917,311
3918,312
3919,310
3920,311
3921,308
3922,308
3923,312
3924,324
3925,327
3926,314
3927,312
3928,313
3929,315
3930,314
3931,319
3932,293
3933,294
3934,652
3935,676
3936,597
3937,268
3938,320
3939,314
3940,311
3941,314
3942,317
3943,323
3944,329
3945,334
3946,339
3947,347
3948,358
3949,367
3950,378
3951,378
3952,369
3953,365
3954,357
3955,345
3956,336
3957,320
3958,316
3959,306
3960,302
3961,302
3962,304
3963,305
3964,310
3965,311
3966,312
3967,314
3968,317
3969,322
3970,325
3971,325
3972,325
3973,325
3974,326
3975,325
3976,324
3977,322
3978,319
3979,323
3980,334
3981,338
3982,324
3983,323
3984,322
3985,324
3986,324
3987,326
3988,308
3989,302
3990,600
3991,674
3992,557
3993,280
3994,330
3995,324
3996,323
3997,328
3998,334
3999,338
4000,341
4001,345
4002,354
4003,362
4004,368
4005,382
4006,386
4007,392
4008,393
4009,390
4010,373
4011,361
4012,345
4013,335
4014,325
4015,317
4016,319
4017,320
4018,321
4019,326
4020,326
4021,326
4022,329
4023,327
4024,332
4025,335
4026,337
4027,338
4028,336
4029,338
4030,342
4031,337
4032,338
4033,336
4034,333
4035,338
4036,351
4037,349
4038,335
4039,336
4040,336
4041,334
4042,340
4043,337
4044,312
4045,374
4046,674
4047,674
4048,440
4049,316
4050,343
4051,329
4052,326
4053,332
4054,341
4055,343
4056,347
4057,352
4058,360
4059,373
4060,380
4061,387
4062,398
4063,397
4064,397
4065,388
4066,373
4067,360
4068,343
4069,337
4070,327
4071,325
4072,324
4073,330
4074,330
4075,332
4076,336
4077,337
4078,338
4079,339
4080,338
4081,342
4082,344
4083,343
4084,343
4085,341
4086,348
4087,345
4088,341
4089,342
4090,340
4091,338
4092,338
4093,353
4094,357
4095,346
4096,342
4097,339
4098,339
4099,343
4100,343
4101,323
4102,309
4103,593
4104,676
4105,672
4106,327
4107,336
4108,333
4109,330
4110,331
4111,335
4112,336
4113,342
4114,342
4115,353
4116,357
4117,365
4118,373
4119,386
4120,388
4121,389
4122,382
4123,372
4124,364
4125,350
4126,338
4127,329
4128,322
4129,325
4130,327
4131,321
4132,326
4133,331
4134,329
4135,332
4136,329
4137,336
4138,331
4139,331
4140,335
4141,337
4142,333
4143,334
4144,328
4145,334
4146,334
4147,332
4148,331
4149,330
4150,334
4151,333
4152,323
4153,329
4154,336
4155,347
4156,337
4157,330
4158,330
4159,332
4160,329
4161,333
4162,319
4163,289
4164,533
4165,676
4166,675
4167,350
4168,320
4169,322
4170,315
4171,314
4172,321
4173,323
4174,326
4175,331
4176,338
4177,343
4178,351
4179,361
4180,368
4181,372
4182,369
4183,365
4184,356
4185,348
4186,342
4187,332
4188,322
4189,318
4190,317
4191,320
4192,316
4193,317
4194,322
4195,327
4196,325
4197,327
4198,328
4199,329
4200,329
4201,329
4202,331
4203,328
4204,329
4205,326
4206,327
4207,329
4208,329
4209,328
4210,326
4211,319
4212,326
4213,337
4214,346
4215,334
4216,327
4217,327
4218,326
4219,330
4220,330
4221,308
4222,291
4223,598
4224,677
4225,675
4226,333
4227,318
4228,318
4229,313
4230,311
4231,316
4232,319
4233,323
4234,327
4235,330
4236,339
4237,344
4238,354
4239,361
4240,358
4241,357
4242,351
4243,342
4244,340
4245,333
4246,325
4247,319
4248,317
4249,311
4250,317
4251,317
4252,318
4253,321
4254,324
4255,325
4256,326
4257,327
4258,330
4259,329
4260,329
4261,326
4262,325
4263,323
4264,328
4265,326
4266,325
4267,319
4268,318
4269,326
4270,338
4271,341
4272,325
4273,324
4274,322
4275,327
4276,328
4277,323
4278,286
4279,370
4280,676
4281,677
4282,587
4283,295
4284,319
4285,311
4286,307
4287,310
4288,314
4289,317
4290,321
4291,325
4292,335
4293,343
4294,350
4295,357
4296,360
4297,360
4298,351
4299,344
4300,340
4301,336
4302,325
4303,320
4304,319
4305,314
4306,307
4307,315
4308,314
4309,319
4310,321
4311,318
4312,325
4313,324
4314,323
4315,329
4316,326
4317,320
4318,321
4319,323
4320,316
4321,317
4322,322
4323,317
4324,334
4325,339
4326,317
4327,315
4328,313
4329,314
4330,323
4331,318
4332,291
4333,306
4334,671
4335,677
4336,673
4337,294
4338,306
4339,309
4340,307
4341,301
4342,311
4343,317
4344,314
4345,326
4346,330
4347,330
4348,339
4349,351
4350,349
4351,349
4352,344
4353,341
4354,336
4355,333
4356,335
4357,323
4358,320
4359,311
4360,312
4361,326
4362,314
4363,315
4364,321
4365,322
4366,324
4367,325
4368,332
4369,330
4370,331
4371,338
4372,336
4373,328
4374,331
4375,323
4376,335
4377,344
4378,348
4379,334
4380,328
4381,333
4382,327
4383,335
4384,330
4385,294
4386,411
4387,676
4388,677
4389,561
4390,305
4391,324
4392,313
4393,313
4394,316
4395,318
4396,324
4397,326
4398,327
4399,337
4400,341
4401,354
4402,364
4403,360
4404,359
4405,354
4406,348
4407,349
4408,342
4409,335
4410,330
4411,328
4412,329
4413,319
4414,329
4415,325
4416,329
4417,334
4418,336
4419,335
4420,338
4421,339
4422,340
4423,330
4424,338
4425,332
4426,332
4427,333
4428,352
4429,344
4430,328
4431,329
4432,334
4433,331
4434,331
4435,330
4436,285
4437,432
4438,677
4439,677
4440,536
4441,295
4442,319
4443,309
4444,304
4445,307
4446,312
4447,312
4448,320
4449,321
4450,330
4451,335
4452,347
4453,345
4454,345
4455,347
4456,338
4457,330
4458,336
4459,333
4460,326
4461,322
4462,320
4463,318
4464,318
4465,320
4466,317
4467,321
4468,326
4469,325
4470,329
4471,327
4472,328
4473,328
4474,320
4475,321
4476,325
4477,336
4478,340
4479,324
4480,320
4481,318
4482,320
4483,321
4484,320
4485,289
4486,282
4487,665
4488,677
4489,675
4490,332
4491,305
4492,301
4493,296
4494,301
4495,303
4496,306
4497,310
4498,312
4499,319
4500,323
4501,330
4502,335
4503,337
4504,332
4505,327
4506,325
4507,320
4508,318
4509,320
4510,308
4511,307
4512,304
4513,302
4514,300
4515,299
4516,304
4517,305
4518,307
4519,307
4520,306
4521,309
4522,305
4523,307
4524,307
4525,318
4526,323
4527,308
4528,302
4529,301
4530,306
4531,306
4532,304
4533,274
4534,274
4535,653
4536,676
4537,593
4538,253
4539,308
4540,296
4541,290
4542,295
4543,301
4544,305
4545,309
4546,319
4547,323
4548,333
4549,342
4550,349
4551,354
4552,354
4553,344
4554,338
4555,333
4556,329
4557,317
4558,315
4559,308
4560,312
4561,314
4562,313
4563,315
4564,321
4565,325
4566,328
4567,332
4568,334
4569,337
4570,338
4571,340
4572,340
4573,355
4574,348
4575,337
4576,337
4577,334
4578,337
4579,337
4580,318
4581,281
4582,556
4583,676
4584,662
4585,304
4586,338
4587,335
4588,329
4589,332
4590,341
4591,344
4592,346
4593,354
4594,359
4595,369
4596,378
4597,385
4598,390
4599,392
4600,389
4601,378
4602,374
4603,361
4604,350
4605,343
4606,336
4607,332
4608,333
4609,330
4610,330
4611,334
4612,337
4613,334
4614,343
4615,345
4616,344
4617,341
4618,342
4619,344
4620,353
4621,356
4622,340
4623,335
4624,332
4625,333
4626,335
4627,326
4628,267
4629,405
4630,676
4631,676
4632,420
4633,307
4634,328
4635,317
4636,318
4637,319
4638,323
4639,329
4640,329
4641,338
4642,347
4643,354
4644,364
4645,370
4646,375
4647,372
4648,370
4649,363
4650,355
4651,343
4652,335
4653,323
4654,322
4655,317
4656,319
4657,320
4658,325
4659,323
4660,325
4661,329
4662,330
4663,331
4664,331
4665,332
4666,328
4667,332
4668,330
4669,329
4670,327
4671,334
4672,342
4673,342
4674,328
4675,327
4676,332
4677,327
4678,331
4679,319
4680,292
4681,512
4682,677
4683,676
4684,370
4685,311
4686,324
4687,312
4688,315
4689,320
4690,324
4691,328
4692,332
4693,338
4694,346
4695,354
4696,364
4697,375
4698,378
4699,375
4700,372
4701,364
4702,357
4703,346
4704,330
4705,321
4706,319
4707,314
4708,313
4709,315
4710,320
4711,322
4712,324
4713,321
4714,325
4715,325
4716,327
4717,327
4718,328
4719,329
4720,328
4721,330
4722,331
4723,330
4724,332
4725,334
4726,333
4727,329
4728,334
4729,334
4730,331
4731,332
4732,332
4733,331
4734,334
4735,333
4736,333
4737,334
4738,334
4739,337
4740,337
4741,338
4742,338
4743,335
4744,337
4745,338
4746,340
4747,341
4748,349
4749,360
4750,356
4751,351
4752,342
4753,340
4754,341
4755,343
4756,340
4757,329
4758,290
4759,520
4760,677
4761,676
4762,460
4763,313
4764,328
4765,320
4766,319
4767,322
4768,324
4769,327
4770,332
4771,336
4772,341
4773,348
4774,358
4775,362
4776,368
4777,370
4778,368
4779,362
4780,359
4781,354
4782,344
4783,335
4784,328
4785,326
4786,321
4787,319
4788,321
4789,323
4790,324
4791,325
4792,328
4793,327
4794,326
4795,328
4796,329
4797,327
4798,328
4799,327
4800,327
4801,327
4802,325
4803,325
4804,323
4805,322
4806,322
4807,322
4808,322
4809,320
4810,322
4811,320
4812,320
4813,318
4814,321
4815,324
4816,334
4817,342
4818,334
4819,333
4820,323
4821,316
4822,319
4823,319
4824,319
4825,303
4826,273
4827,565
4828,676
4829,674
4830,300
4831,303
4832,311
4833,305
4834,306
4835,313
4836,316
4837,321
4838,326
4839,331
4840,340
4841,349
4842,357
4843,369
4844,377
4845,375
4846,369
4847,364
4848,352
4849,339
4850,324
4851,314
4852,306
4853,302
4854,302
4855,299
4856,301
4857,302
4858,301
4859,300
4860,302
4861,304
4862,310
4863,309
4864,308
4865,309
4866,308
4867,307
4868,305
4869,304
4870,303
4871,299
4872,298
4873,297
4874,295
4875,294
4876,292
4877,287
4878,291
4879,301
4880,307
4881,299
4882,294
4883,298
4884,301
4885,300
4886,301
4887,279
4888,278
4889,619
4890,675
4891,602
4892,256
4893,310
4894,306
4895,302
4896,309
4897,315
4898,320
4899,327
4900,332
4901,339
4902,348
4903,362
4904,375
4905,388
4906,394
4907,397
4908,392
4909,385
4910,369
4911,351
4912,335
4913,326
4914,318
4915,316
4916,315
4917,319
4918,323
4919,324
4920,324
4921,325
4922,325
4923,329
4924,336
4925,342
4926,345
4927,347
4928,350
4929,351
4930,350
4931,350
4932,351
4933,351
4934,350
4935,350
4936,352
4937,352
4938,354
4939,354
4940,353
4941,356
4942,357
4943,357
4944,358
4945,357
4946,360
4947,360
4948,360
4949,362
4950,362
4951,362
4952,363
4953,365
4954,366
4955,365
4956,366
4957,364
4958,361
4959,364
4960,376
4961,379
4962,371
4963,364
4964,365
4965,365
4966,365
4967,365
4968,337
4969,360
4970,675
4971,677
4972,673
4973,346
4974,351
4975,347
4976,344
4977,345
4978,346
4979,349
4980,351
4981,357
4982,362
4983,372
4984,380
4985,389
4986,400
4987,408
4988,408
4989,406
4990,401
4991,390
4992,372
4993,355
4994,343
4995,333
4996,327
4997,323
4998,322
4999,322
5000,323
5001,322
5002,323
5003,323
5004,322
5005,323
5006,326
5007,326
5008,328
5009,328
5010,330
5011,332
5012,331
5013,330
5014,330
5015,329
5016,328
5017,325
5018,325
5019,324
5020,325
5021,325
5022,323
5023,322
5024,323
5025,322
5026,323
5027,322
5028,323
5029,324
5030,326
5031,325
5032,325
5033,322
5034,325
5035,333
5036,341
5037,337
5038,325
5039,326
5040,323
5041,327
5042,327
5043,315
5044,282
5045,516
5046,675
5047,673
5048,328
5049,307
5050,322
5051,315
5052,316
5053,318
5054,322
5055,326
5056,332
5057,339
5058,346
5059,356
5060,366
5061,379
5062,392
5063,399
5064,398
5065,389
5066,380
5067,361
5068,339
5069,325
5070,313
5071,309
5072,307
5073,306
5074,306
5075,308
5076,312
5077,311
5078,312
5079,313
5080,315
5081,322
5082,325
5083,326
5084,331
5085,334
5086,333
5087,331
5088,334
5089,332
5090,330
5091,331
5092,329
5093,329
5094,329
5095,329
5096,331
5097,329
5098,331
5099,330
5100,331
5101,331
5102,333
5103,334
5104,335
5105,335
5106,334
5107,336
5108,335
5109,346
5110,355
5111,354
5112,344
5113,337
5114,336
5115,338
5116,340
5117,340
5118,311
5119,371
5120,675
5121,676
5122,576
5123,299
5124,338
5125,328
5126,329
5127,331
5128,335
5129,339
5130,343
5131,350
5132,355
5133,363
5134,373
5135,387
5136,400
5137,411
5138,415
5139,414
5140,403
5141,389
5142,369
5143,349
5144,332
5145,324
5146,321
5147,318
5148,317
5149,317
5150,318
5151,320
5152,321
5153,319
5154,321
5155,321
5156,327
5157,328
5158,330
5159,333
5160,332
5161,333
5162,332
5163,332
5164,333
5165,331
5166,331
5167,331
5168,330
5169,330
5170,330
5171,329
5172,331
5173,331
5174,331
5175,329
5176,331
5177,334
5178,332
5179,332
5180,333
5181,338
5182,353
5183,355
5184,346
5185,337
5186,333
5187,335
5188,337
5189,335
5190,316
5191,296
5192,593
5193,676
5194,675
5195,352
5196,316
5197,323
5198,317
5199,321
5200,321
5201,326
5202,331
5203,334
5204,337
5205,346
5206,355
5207,368
5208,379
5209,393
5210,399
5211,395
5212,389
5213,378
5214,360
5215,338
5216,320
5217,309
5218,302
5219,299
5220,297
5221,299
5222,299
5223,301
5224,303
5225,302
5226,303
5227,305
5228,305
5229,307
5230,308
5231,308
5232,313
5233,311
5234,313
5235,314
5236,313
5237,311
5238,311
5239,312
5240,311
5241,310
5242,311
5243,311
5244,310
5245,311
5246,311
5247,313
5248,314
5249,315
