259
435
403
364
345
333
333
317
340
317
337
318
344
314
355
323
352
321
360
406
440
430
449
441
466
440
435
403
364
345
333
333
317
340
317
337
318
344
314
355
323
352
321
360
406
440
430
449
441
466
440
435
403
364
345
333
333
317
340
317
337
318
344
314
355
323
352
321
360
321
365
319
361
330
365
324
350
325
368
328
362
331
370
354
367
329
351
341
362
344
353
345
632
673
343
377
365
354
368
348
380
359
392
374
415
389
433
409
453
410
451
404
415
352
355
292
333
286
323
281
329
294
325
294
328
304
322
303
327
307
337
309
327
318
326
320
324
324
320
328
306
330
320
335
323
343
319
340
316
332
316
347
319
633
632
429
281
392
330
366
338
363
334
395
354
407
426
400
447
397
451
423
432
391
374
321
328
298
310
302
309
308
312
314
308
331
312
336
322
344
319
352
325
352
322
358
327
362
321
354
318
388
339
367
326
347
332
383
333
379
349
663
631
435
334
391
363
393
371
394
388
395
401
422
423
459
444
482
445
479
415
447
360
385
330
363
321
362
315
364
318
377
326
376
335
380
329
392
342
385
345
397
349
394
349
399
351
390
361
385
374
385
366
387
377
387
378
361
501
674
670
377
413
392
402
357
408
372
423
385
439
404
460
423
480
447
486
441
484
404
395
345
377
320
348
307
359
302
351
317
361
326
356
330
358
331
351
337
348
336
348
342
338
343
332
345
323
367
340
353
358
323
358
320
351
378
673
667
406
325
389
322
375
325
373
338
385
350
400
367
409
393
445
409
441
404
402
359
356
307
315
293
300
296
296
305
294
310
295
324
305
330
300
330
301
336
298
342
296
344
294
345
290
339
290
343
306
346
293
350
301
332
302
335
493
673
562
322
343
358
326
357
328
362
346
372
369
383
394
404
419
421
437
412
432
383
376
320
329
288
319
286
313
277
330
290
339
297
349
301
354
311
358
318
358
321
359
326
369
330
361
337
379
356
371
349
374
353
368
368
368
424
673
666
402
377
409
407
387
413
401
425
409
447
434
452
440
503
467
511
465
502
441
456
383
402
345
389
343
381
342
381
350
383
355
379
358
385
368
385
373
384
375
367
374
377
376
376
379
367
388
379
391
356
386
353
388
354
384
344
617
673
616
325
405
357
395
350
399
358
402
367
423
386
429
410
454
421
435
430
436
392
377
329
328
311
312
302
306
309
309
316
308
320
312
331
305
330
304
338
301
335
298
339
299
343
289
327
298
360
310
342
294
345
299
344
301
332
464
673
607
329
336
352
321
348
323
351
345
354
357
369
382
390
407
397
423
408
409
363
357
297
316
273
304
267
305
268
312
271
306
274
324
283
318
285
335
287
336
293
331
289
336
297
329
301
326
301
334
328
331
312
322
322
321
321
321
312
530
672
576
318
345
352
319
354
325
359
335
379
346
393
366
420
386
443
417
425
386
398
335
351
288
319
274
311
283
315
282
319
291
322
306
311
304
327
312
325
322
321
327
321
328
309
336
312
346
319
357
328
348
314
353
318
358
322
338
399
673
605
356
327
392
336
378
346
383
355
399
371
413
393
439
420
455
435
450
433
424
379
353
338
325
318
312
323
308
329
306
329
297
344
325
351
316
353
320
355
322
358
332
368
327
364
325
363
330
379
349
372
331
370
339
374
336
367
360
671
671
477
345
388
369
372
364
376
383
382
395
394
420
408
452
434
459
442
461
414
421
351
362
311
339
297
341
301
340
308
340
305
356
312
360
318
362
324
356
326
355
331
356
332
356
331
356
344
345
342
337
357
365
356
339
357
343
356
347
356
329
599
673
592
315
409
350
384
343
386
352
399
363
415
378
436
403
459
422
467
426
452
391
376
331
343
303
327
311
322
306
324
316
327
323
322
330
326
344
324
343
322
344
318
351
325
352
325
357
326
361
322
365
323
359
322
373
342
373
326
371
325
372
351
317
561
673
641
331
394
362
371
354
374
360
384
381
392
400
408
424
431
445
441
459
425
425
373
360
318
335
298
322
300
326
291
339
295
348
303
341
309
351
315
344
316
355
312
339
317
353
319
352
325
346
330
349
330
333
339
362
353
340
344
336
358
338
354
324
395
671
392
356
361
377
351
379
357
390
382
405
382
429
402
451
422
465
436
463
408
415
350
356
306
334
301
328
303
313
313
330
321
328
302
329
335
337
335
333
349
324
350
332
350
322
360
327
357
329
356
320
366
340
387
328
365
325
376
332
375
325
355
575
674
571
349
366
389
346
379
355
387
371
393
392
405
414
435
433
451
456
445
441
409
386
336
338
304
326
300
337
303
339
312
344
312
352
315
359
315
362
322
362
323
347
326
367
331
366
332
359
341
360
332
363
345
367
364
371
344
361
357
359
362
346
370
652
674
549
365
372
393
360
373
344
396
368
413
379
425
409
450
424
465
438
475
419
430
366
369
340
302
331
304
325
304
342
319
338
322
345
328
345
337
339
341
338
341
335
349
329
351
329
355
328
358
331
354
337
372
347
366
325
368
327
365
329
350
349
672
672
488
321
394
345
370
342
377
354
378
368
403
388
422
419
441
439
448
445
429
399
369
342
316
313
296
317
283
323
295
337
294
340
293
350
301
352
304
355
310
339
309
332
314
357
319
345
359
315
352
338
372
330
353
334
352
345
350
334
335
599
673
531
322
381
368
367
359
378
370
392
381
393
389
440
416
470
428
483
427
469
387
408
330
352
307
340
296
341
304
341
309
345
309
349
321
350
333
349
327
354
342
337
350
348
345
345
350
322
356
345
350
333
367
360
359
328
358
332
371
334
369
324
635
673
609
328
399
350
386
347
391
361
401
365
409
391
429
412
449
435
459
447
450
399
392
347
332
321
322
299
320
314
334
312
338
320
346
347
320
350
325
351
321
355
319
349
321
361
320
355
326
353
338
370
341
362
368
325
366
335
348
385
673
672
446
346
381
356
355
362
365
374
374
390
387
411
401
434
414
464
430
457
410
421
337
358
301
334
284
335
289
330
293
340
298
342
301
345
313
344
309
356
317
342
321
351
322
351
332
347
332
345
337
342
343
346
341
368
348
353
340
360
337
366
329
352
426
674
407
336
401
335
389
342
386
349
401
363
420
380
425
416
461
425
471
426
446
384
369
333
328
310
315
308
309
315
325
322
328
328
334
326
341
328
343
320
353
322
357
321
352
318
360
330
363
330
371
333
388
336
369
338
378
332
377
340
364
493
674
622
358
373
407
377
393
382
404
404
410
411
429
441
447
469
469
488
478
484
424
436
379
393
344
382
331
381
340
388
346
395
348
401
361
399
369
402
375
404
376
400
377
407
379
399
372
400
371
396
373
395
401
393
381
380
385
376
389
373
365
490
674
673
428
375
427
350
412
344
429
346
448
366
456
384
479
404
496
423
495
424
460
374
390
312
345
297
332
299
332
304
315
312
326
328
314
335
297
343
288
349
295
350
302
341
304
340
311
339
305
338
317
364
305
343
301
348
304
348
287
331
505
674
610
327
329
359
307
357
319
352
335
363
347
381
372
399
398
418
415
424
406
380
353
306
303
266
279
264
290
257
287
257
287
254
309
268
310
278
313
269
316
272
320
271
315
278
308
274
326
299
318
284
319
289
320
296
326
292
368
658
601
327
311
346
326
338
324
352
326
374
348
393
365
420
395
441
409
453
406
429
350
352
296
324
278
318
277
324
282
329
288
335
299
343
307
348
321
340
328
353
336
353
340
354
354
356
349
341
375
368
383
352
377
356
390
366
389
343
538
674
673
385
420
385
415
374
426
385
433
402
444
416
474
444
498
466
505
480
501
443
444
383
381
351
364
345
365
353
354
358
357
367
359
376
347
382
345
381
350
385
357
384
350
388
345
387
344
393
363
382
339
387
353
391
349
376
326
501
673
673
377
397
364
380
350
378
364
384
376
396
394
410
418
434
444
433
454
429
417
371
358
314
317
281
318
281
321
275
282
329
291
330
289
339
292
344
294
338
293
343
297
325
304
336
300
330
305
344
326
321
317
330
316
327
317
329
308
516
673
591
305
332
361
328
346
329
361
337
370
343
392
365
425
397
452
407
446
402
424
341
355
287
318
275
318
282
293
285
321
290
326
290
330
309
327
316
325
322
328
331
328
332
329
335
320
343
339
364
317
359
312
362
319
361
315
381
644
672
401
345
354
378
329
388
332
401
359
409
374
420
406
442
426
486
464
458
420
396
355
343
312
316
313
309
321
308
322
299
324
302
352
310
347
310
358
316
359
308
362
312
351
318
363
317
359
306
380
334
371
320
360
367
331
365
304
510
673
670
353
381
356
363
356
363
368
376
384
383
399
391
427
406
463
431
470
424
441
362
376
306
334
299
324
284
341
288
319
290
349
303
350
306
347
312
347
311
349
314
344
318
336
319
338
318
325
345
359
333
340
345
330
344
315
345
315
565
673
612
302
387
338
369
337
379
338
391
345
402
368
424
398
461
427
471
424
461
381
399
317
331
295
319
293
300
293
320
300
321
311
308
323
325
323
311
334
315
332
316
347
314
353
319
345
309
351
311
375
321
343
303
362
307
371
319
334
397
673
634
371
332
389
336
373
342
373
357
389
374
399
396
415
423
442
441
438
443
415
386
342
338
306
319
297
320
292
321
286
331
290
343
293
349
306
354
293
351
319
350
312
363
312
359
314
352
321
361
323
359
319
359
346
360
358
341
354
355
356
345
356
329
392
672
673
455
367
369
382
346
375
361
391
359
414
361
449
378
460
396
494
418
491
401
448
336
366
309
331
294
334
303
328
307
337
312
330
323
336
326
333
342
325
354
320
355
318
359
314
359
322
364
328
358
327
360
327
371
341
381
329
353
325
373
320
348
312
395
653
673
489
364
361
380
346
383
352
385
366
398
384
414
408
437
435
458
462
453
445
400
380
330
336
300
322
293
315
298
330
300
335
303
333
304
348
312
350
316
353
318
356
322
354
324
362
324
364
321
356
334
369
358
361
338
363
349
358
359
356
330
562
673
593
345
391
396
366
393
367
411
375
424
406
437
416
478
451
491
459
497
442
462
384
391
333
374
312
364
323
360
328
359
329
369
345
369
350
370
354
379
364
366
374
373
374
369
374
366
380
364
382
365
386
351
400
374
408
366
383
357
395
358
396
352
369
554
674
662
388
379
404
365
393
369
393
375
399
398
420
413
445
440
464
460
467
452
424
401
343
338
312
316
300
323
307
326
295
336
307
333
310
338
308
333
302
338
309
346
298
334
312
347
312
345
317
348
315
340
316
351
325
331
323
337
331
336
334
329
304
673
643
334
352
358
335
357
332
364
342
382
355
399
373
430
395
444
414
458
414
428
342
353
296
323
268
312
271
311
276
306
276
301
292
312
293
322
304
318
311
320
311
321
319
308
323
308
323
313
330
302
350
326
351
309
349
308
346
311
333
290
398
669
645
354
348
339
369
327
370
344
382
350
400
377
399
397
428
420
457
429
441
422
390
348
328
321
305
306
303
312
290
320
303
325
308
327
306
337
309
346
313
353
314
343
313
356
315
344
320
358
319
357
349
320
361
351
360
327
357
331
353
345
351
312
465
673
668
372
361
375
352
368
355
372
367
382
365
399
384
428
419
441
428
470
425
445
378
369
306
348
292
334
293
326
294
323
303
328
309
346
315
341
319
343
315
348
326
342
329
340
336
323
340
327
351
328
345
335
365
344
359
331
358
333
347
333
363
308
554
671
556
299
391
353
371
344
380
356
392
368
392
394
435
415
461
439
468
451
441
421
393
357
331
326
317
323
313
329
308
337
319
339
300
346
319
346
320
349
327
358
329
352
325
347
324
372
329
374
326
371
322
371
342
386
331
370
342
361
349
360
338
428
673
672
423
376
384
371
371
365
381
377
400
388
412
399
436
422
465
430
481
429
456
373
400
319
352
292
342
286
343
297
340
311
347
313
348
321
351
322
350
331
352
329
344
336
341
343
352
342
342
355
336
351
357
378
346
366
345
368
337
387
344
350
493
674
671
386
368
393
352
397
364
403
372
428
397
437
411
453
438
484
456
482
458
464
406
393
359
347
335
348
350
348
352
354
357
354
372
355
378
361
381
353
384
351
370
352
391
351
388
347
382
355
386
346
397
367
399
356
382
350
388
359
387
348
380
616
672
495
351
386
388
371
387
385
389
397
393
409
409
433
420
467
444
469
441
454
392
380
328
335
296
323
289
315
291
329
293
338
292
336
303
338
304
344
316
322
319
331
311
339
318
331
319
333
318
306
334
344
318
334
324
332
324
337
300
381
654
672
396
351
331
358
317
357
326
363
333
376
355
395
369
422
391
438
399
437
384
389
325
327
283
302
274
293
275
293
285
301
286
291
298
294
303
300
311
296
315
302
319
290
331
291
333
293
333
296
327
290
351
316
337
295
336
304
341
306
334
292
562
672
606
299
376
327
351
326
356
341
361
356
375
378
392
404
415
429
429
437
429
414
360
355
298
316
289
315
285
321
287
327
295
333
294
341
298
352
291
343
308
354
315
349
321
351
322
351
325
354
326
360
351
361
332
352
310
344
354
349
347
422
673
647
382
353
398
371
393
360
405
375
419
398
440
411
460
416
476
455
497
455
473
407
407
352
374
331
361
332
359
341
356
349
367
356
368
365
372
368
380
380
372
381
375
388
367
391
370
390
362
390
371
409
373
398
362
401
366
403
366
378
442
674
673
488
376
422
375
405
379
409
382
423
400
420
417
444
450
471
454
493
468
445
415
377
366
336
337
320
341
313
337
308
360
314
314
371
314
356
326
364
321
357
327
360
322
365
321
365
301
370
336
383
317
361
329
350
328
364
328
351
641
674
532
330
372
351
351
347
361
346
376
360
388
375
414
385
441
405
447
403
431
365
377
310
327
279
319
273
315
276
318
285
322
287
317
291
327
292
326
299
326
308
322
309
324
311
319
314
310
330
330
327
299
325
313
340
311
338
297
402
671
632
320
338
333
354
321
365
327
367
