345
437
449
450
444
445
417
381
357
330
331
316
318
322
331
316
339
325
341
329
343
334
347
399
414
421
437
449
450
444
445
417
381
357
330
331
316
318
322
331
316
339
325
341
329
343
334
347
399
414
421
437
449
450
444
445
417
381
357
330
331
316
318
322
331
316
339
325
341
329
343
334
347
337
346
337
352
335
342
343
352
338
346
342
366
364
355
345
356
350
355
356
343
347
653
675
637
354
371
370
359
362
365
377
374
389
387
407
409
431
432
452
452
462
438
424
377
371
330
336
317
329
317
333
321
341
328
341
332
346
335
350
341
348
338
349
344
354
341
343
352
351
345
345
354
359
355
351
350
356
368
353
363
349
370
362
369
361
366
354
376
363
385
382
390
370
375
365
375
368
384
352
405
673
673
487
374
396
383
384
389
385
399
396
409
408
424
430
444
459
465
474
468
462
447
409
372
359
345
339
326
340
332
339
337
346
337
352
343
357
345
352
348
356
355
362
349
360
347
368
355
356
359
362
357
359
358
363
355
356
368
388
375
366
362
362
361
359
372
350
333
596
673
574
351
380
378
364
378
369
383
381
393
392
416
403
439
438
460
453
470
448
434
393
367
339
325
318
320
312
321
310
315
315
327
327
326
324
330
325
338
335
334
336
329
342
329
339
325
344
329
343
329
339
336
343
332
343
332
347
334
344
335
346
337
347
338
351
338
354
340
353
342
356
350
350
351
368
368
359
350
346
353
354
353
343
322
528
674
672
388
366
367
355
359
351
372
363
383
373
396
391
418
415
449
439
458
443
452
411
385
340
339
311
314
308
313
306
316
312
323
316
323
324
328
323
334
327
332
333
331
328
335
336
323
334
334
340
331
345
334
347
339
351
337
347
341
348
345
359
340
360
342
360
348
356
355
366
349
360
352
366
372
376
365
352
354
363
363
363
354
335
574
672
539
348
384
379
373
374
385
382
386
393
408
401
421
426
452
455
479
470
480
456
435
380
368
332
338
314
331
321
328
321
335
323
337
332
341
333
352
341
347
348
357
350
357
351
352
354
352
351
359
355
354
356
355
363
352
363
357
368
356
365
356
372
359
368
353
389
380
378
360
372
357
377
356
382
334
454
673
672
434
385
381
375
375
383
376
389
386
395
402
413
422
443
454
466
472
478
470
440
404
368
344
326
325
320
322
314
327
319
334
324
337
330
341
328
353
335
350
339
349
342
356
344
357
342
359
347
362
350
358
353
364
359
363
359
361
361
365
369
366
368
365
371
380
389
385
372
374
379
373
380
377
364
418
674
674
551
370
402
383
388
380
396
387
408
400
419
416
442
443
477
474
496
488
492
457
435
386
367
345
343
330
339
335
337
336
341
344
344
344
347
354
351
352
350
364
353
362
354
367
358
366
356
365
362
369
357
371
363
376
365
377
365
380
358
401
392
399
381
395
384
398
386
402
382
392
670
670
502
385
423
418
414
416
418
417
428
427
431
439
458
458
479
488
501
494
503
464
432
390
372
336
345
324
335
320
339
320
334
324
341
326
340
325
343
328
350
334
339
336
341
337
338
334
337
337
336
332
339
339
331
337
333
336
335
343
345
355
351
351
328
336
329
327
333
312
554
672
589
322
363
332
344
335
348
336
362
351
364
367
388
388
411
417
439
437
443
418
395
352
324
303
286
287
280
286
284
287
285
299
287
298
290
307
294
307
298
309
299
311
281
305
295
317
305
319
303
322
311
322
309
325
314
322
315
327
327
347
336
338
321
319
318
331
327
322
299
531
674
631
326
348
348
333
343
343
347
350
368
363
381
381
409
411
439
439
460
441
448
404
377
327
325
297
309
296
312
295
312
303
314
304
320
310
329
319
331
323
334
326
331
326
338
336
333
342
334
343
338
348
339
348
341
348
346
361
357
382
367
372
348
367
353
369
357
368
324
539
672
554
346
397
378
388
380
400
386
408
407
421
419
444
445
465
476
496
490
499
478
453
416
380
365
350
353
350
337
346
356
353
364
349
372
362
372
368
380
366
386
373
384
372
388
372
388
375
388
373
387
372
391
379
390
377
391
380
394
401
408
388
401
383
385
382
391
386
375
416
673
674
566
389
398
393
386
395
390
402
400
413
411
432
426
449
456
480
474
489
470
468
414
395
345
354
326
330
316
335
317
338
326
333
331
341
331
342
332
335
338
341
332
334
342
340
341
337
344
339
343
340
344
340
344
338
349
337
349
341
355
348
378
354
360
339
353
339
352
340
344
331
607
673
638
334
374
344
355
343
357
351
368
361
377
384
396
408
418
433
441
450
449
437
371
335
325
307
304
294
307
300
309
297
321
305
320
313
320
308
331
311
324
313
333
313
333
320
329
321
338
319
336
324
336
323
341
329
340
334
343
350
357
354
345
330
343
342
340
339
335
324
587
670
477
329
364
363
351
370
359
377
371
391
381
405
403
434
427
462
453
470
449
454
406
390
343
339
316
327
313
318
319
321
329
324
335
336
344
334
340
342
339
345
348
346
343
348
345
352
338
355
343
358
346
353
348
356
347
360
363
382
365
376
348
363
344
369
348
360
335
591
673
654
355
386
362
367
359
374
369
381
382
390
397
411
418
429
448
458
455
464
452
417
388
354
336
320
326
311
319
315
328
319
332
323
338
324
340
330
338
328
348
329
345
333
347
332
348
325
356
333
348
338
351
342
349
341
355
361
370
363
351
329
348
348
349
357
327
384
673
666
421
349
372
365
359
371
354
371
377
396
390
416
413
441
441
471
462
480
456
456
400
382
338
341
314
332
314
328
316
334
324
338
330
338
341
344
343
346
351
354
350
355
353
357
357
359
363
355
369
360
364
369
387
379
388
369
376
362
378
366
378
360
369
637
673
539
368
392
397
379
395
388
405
396
417
411
434
432
454
457
474
480
485
480
464
428
398
375
354
352
341
350
345
349
348
354
353
358
354
364
357
372
367
371
363
371
357
376
358
376
359
376
358
370
356
378
358
370
372
396
381
383
363
375
360
373
368
355
338
571
674
668
370
377
368
360
368
365
356
367
385
378
390
399
418
417
437
439
456
446
439
396
383
328
327
298
313
291
312
296
309
299
320
301
318
309
318
309
323
312
318
315
322
319
322
317
318
322
315
323
318
323
316
332
337
328
320
330
322
334
324
336
290
488
672
548
312
357
343
350
334
354
349
366
353
376
377
403
392
426
426
451
439
450
428
407
364
334
313
311
296
306
299
298
304
306
314
302
312
314
326
318
333
321
333
327
346
328
340
331
348
326
349
335
349
327
353
351
370
334
362
342
363
347
368
334
360
643
672
509
357
380
376
363
385
375
384
389
395
401
412
423
432
449
456
464
466
465
437
418
373
363
334
339
327
338
325
339
332
348
334
355
338
360
341
360
347
363
348
364
350
372
352
363
347
367
356
363
354
364
350
362
375
377
358
360
368
363
366
366
356
391
673
674
543
359
387
360
370
364
382
377
392
381
402
398
428
422
450
442
470
448
461
428
410
359
350
325
324
315
320
313
329
321
330
328
334
330
336
332
335
336
331
336
339
338
333
341
333
342
337
342
339
348
333
345
332
358
353
358
337
352
343
356
342
357
322
486
673
652
354
378
375
377
364
382
374
393
386
410
409
430
432
454
465
475
482
476
481
448
419
387
374
361
351
362
364
359
367
365
376
369
387
373
394
380
396
385
401
384
402
389
400
386
407
390
400
389
398
389
418
409
403
393
400
395
405
399
390
394
673
674
611
389
414
410
396
409
404
421
417
425
425
435
438
464
465
487
478
494
469
465
424
401
366
368
342
356
339
357
342
357
345
360
351
367
356
364
350
370
352
364
354
359
355
352
355
350
355
353
349
341
347
344
365
357
352
336
354
341
347
338
340
363
672
673
508
330
371
344
356
338
361
345
371
336
372
376
401
397
422
416
437
425
430
400
376
338
321
306
295
295
293
296
293
300
301
310
302
314
306
314
314
318
307
320
303
318
301
323
306
323
308
324
301
322
310
329
317
325
309
323
313
326
310
313
355
673
671
415
318
336
326
331
327
333
337
337
351
355
367
374
393
398
420
412
416
402
399
350
332
301
296
275
294
271
296
283
303
283
308
292
312
294
317
300
315
299
317
305
323
304
324
312
327
303
322
313
341
330
328
321
330
329
330
338
315
383
669
583
348
341
361
358
345
369
351
374
367
388
381
414
403
433
430
462
443
456
433
431
371
352
315
330
303
324
309
321
311
328
317
326
323
335
333
334
338
338
342
341
343
343
346
344
343
336
347
350
369
345
357
344
362
354
365
340
334
537
674
572
343
373
379
360
380
366
385
376
402
387
412
406
436
426
450
441
462
445
437
403
381
348
325
333
328
326
324
332
315
340
329
344
336
348
340
356
341
355
332
356
342
358
342
350
330
344
346
381
350
359
346
357
344
366
344
347
476
674
671
396
368
384
362
368
365
376
374
385
393
398
403
430
437
439
453
449
455
437
418
374
357
322
333
319
323
315
333
315
336
323
344
325
346
329
351
330
356
338
352
328
356
335
346
337
347
329
351
357
365
343
352
348
353
350
354
327
474
674
672
391
368
371
358
361
362
365
369
385
379
403
399
423
419
447
438
457
438
443
401
386
339
341
312
324
307
327
309
332
314
336
322
341
324
336
326
329
342
331
343
335
332
335
337
335
334
355
355
346
334
352
342
353
342
351
320
586
667
501
320
381
361
374
355
380
388
376
398
388
431
418
443
443
466
443
449
426
406
362
354
331
334
323
336
326
337
335
333
342
349
353
347
361
359
361
357
366
357
372
367
375
365
378
362
375
373
400
382
386
374
395
379
401
386
383
502
675
673
457
411
434
410
428
411
436
431
444
443
461
464
478
486
498
497
504
504
487
469
428
407
387
384
369
380
370
381
371
384
373
389
373
392
374
391
375
385
395
369
391
372
387
371
381
361
383
379
403
375
380
365
386
369
367
353
561
675
671
380
384
375
375
363
375
377
383
377
394
396
410
409
433
431
448
430
447
407
407
353
342
310
320
297
314
300
315
301
320
305
321
314
329
310
328
315
326
315
320
316
326
313
322
315
320
311
314
324
329
331
315
324
312
324
314
325
293
404
673
650
327
341
332
335
320
343
321
352
335
360
350
372
364
404
396
420
404
419
389
387
338
326
294
296
279
296
279
295
290
298
289
302
309
305
307
311
315
313
323
312
324
313
327
310
331
305
336
329
353
318
332
325
345
324
345
311
403
672
669
381
357
352
356
342
367
348
371
371
388
377
400
403
430
432
434
439
439
423
400
372
349
330
317
323
314
324
314
323
320
328
325
342
326
347
325
351
332
347
325
348
331
352
332
353
326
348
329
364
353
355
335
359
340
352
344
343
346
670
674
568
339
380
354
356
360
361
365
370
385
385
398
402
424
420
442
437
451
428
424
376
367
327
337
304
329
307
326
309
336
314
338
321
339
318
364
353
345
326
342
324
341
328
340
324
333
328
347
351
341
335
337
338
339
344
331
324
532
673
568
319
358
365
343
360
346
368
355
383
370
404
388
428
418
444
426
450
428
429
383
366
321
329
303
315
302
319
299
327
309
326
312
333
320
338
323
340
336
338
339
332
340
331
337
334
359
353
350
333
360
341
357
343
358
323
583
671
531
323
388
368
378
355
392
370
385
374
410
397
427
421
454
441
462
443
453
420
400
361
352
335
337
326
345
338
332
337
333
347
338
349
353
348
357
345
359
339
357
344
360
338
359
329
368
368
372
336
365
341
368
348
364
318
507
673
672
376
384
365
369
350
375
365
392
384
400
393
410
416
434
438
443
456
446
434
395
375
344
332
318
324
314
324
321
331
321
340
325
341
324
347
326
344
322
346
329
350
330
345
330
355
328
343
339
366
344
352
337
348
347
356
340
332
415
674
671
402
358
371
359
358
362
357
373
374
385
380
411
404
434
424
455
441
450
424
411
356
354
314
326
300
317
306
322
306
323
302
324
317
338
315
343
323
341
324
345
331
340
337
343
334
334
337
347
360
346
344
342
353
348
358
344
336
559
670
497
342
377
385
369
391
378
397
385
415
406
432
423
458
451
478
470
487
462
462
410
395
367
370
346
356
351
363
360
371
366
374
359
377
382
390
390
393
399
393
401
399
409
400
412
403
419
404
414
403
435
432
430
412
431
411
433
413
424
391
649
675
673
451
445
422
432
414
434
423
441
435
449
450
468
469
483
488
504
494
501
472
441
409
381
370
362
361
358
356
353
368
357
372
362
370
363
367
365
378
357
373
352
372
350
367
351
368
350
364
342
356
355
378
351
356
351
360
347
359
342
317
502
675
671
368
360
360
345
350
351
349
368
360
373
372
390
389
411
410
429
416
429
399
385
335
324
289
298
279
288
273
301
280
302
283
303
292
304
291
305
292
306
296
306
299
310
299
305
299
306
305
305
306
302
310
315
326
306
317
303
323
308
322
300
315
584
665
443
311
333
349
323
341
334
356
340
366
361
389
379
407
405
435
424
436
415
413
364
342
314
311
296
300
289
300
294
303
307
308
311
312
323
315
326
322
328
320
332
317
333
320
339
321
341
320
336
321
359
332
351
325
348
327
356
332
337
351
673
671
456
312
376
350
361
353
368
362
379
377
393
396
409
420
432
442
445
445
431
415
373
354
324
329
312
324
310
327
311
336
317
337
321
346
323
347
324
349
326
355
328
350
331
347
318
351
329
353
336
354
333
346
346
368
353
342
355
352
346
354
346
325
485
674
672
376
373
366
363
355
369
357
380
367
394
387
407
403
437
424
457
436
455
419
417
359
357
314
327
300
322
301
322
309
329
311
330
315
332
322
333
326
335
325
334
330
330
335
334
336
332
341
333
340
334
345
327
344
348
367
333
351
336
352
337
362
333
371
669
673
453
350
365
369
342
367
353
378
368
389
379
407
401
426
424
451
440
451
434
423
379
352
339
319
318
317
316
326
327
320
329
321
334
322
345
335
348
333
352
332
356
332
357
333
360
335
360
338
361
332
356
348
382
344
367
344
366
349
369
340
351
609
674
615
358
382
375
364
373
373
378
386
385
402
402
418
427
442
444
463
445
459
424
407
363
356
323
335
315
336
315
337
321
343
326
344
328
353
329
353
335
359
336
353
336
351
341
350
342
355
345
356
349
354
348
346
357
366
363
348
360
348
363
359
324
522
674
672
366
388
367
370
