328
333
338
345
349
360
370
381
386
386
379
370
330
333
315
312
615
676
654
287
330
322
317
320
325
328
333
338
345
349
360
370
381
386
386
379
370
330
333
315
312
615
676
654
287
330
322
317
320
325
328
333
338
345
349
360
370
381
386
386
379
370
325
314
307
303
300
304
303
305
304
307
307
306
309
312
311
310
310
312
310
310
309
309
311
308
309
307
309
307
306
308
320
326
311
307
309
309
312
309
287
357
674
673
402
275
316
304
308
309
313
320
325
330
338
347
361
370
381
387
383
377
365
352
333
318
308
304
300
302
301
305
305
309
310
311
313
315
317
321
320
321
325
328
324
327
327
328
322
324
335
343
328
326
327
329
331
332
317
315
625
674
525
281
343
335
334
337
342
346
353
358
366
372
386
398
408
411
413
403
392
376
359
342
332
323
321
320
321
322
323
326
327
330
330
334
335
338
337
340
339
339
338
339
337
337
336
335
332
340
348
351
335
338
339
342
339
340
310
438
675
674
372
323
343
331
333
339
341
348
350
356
362
372
384
395
402
408
405
394
384
367
345
329
319
312
312
307
310
311
315
313
318
314
316
317
320
319
321
319
321
321
318
320
321
316
317
319
331
330
319
318
318
321
319
319
289
420
674
620
304
302
328
320
320
327
334
339
343
353
356
367
381
395
404
409
404
393
381
364
343
332
321
319
316
315
316
318
319
318
325
326
330
330
334
333
336
335
337
336
337
335
334
329
337
346
348
333
335
335
338
338
338
313
412
674
672
366
319
345
333
334
336
341
346
351
355
363
369
382
394
402
405
404
395
381
360
346
330
320
314
313
309
311
313
316
316
318
319
320
320
322
323
323
323
321
321
322
321
320
320
318
321
318
315
313
322
333
330
316
320
319
320
320
318
290
445
675
673
327
306
322
311
313
320
321
327
330
338
345
354
364
377
383
389
385
379
369
353
337
321
312
306
306
303
307
307
311
313
315
315
318
315
317
317
317
317
316
316
317
314
315
317
317
315
316
317
314
311
316
330
333
314
318
318
317
318
316
290
412
675
668
329
299
321
311
318
320
323
327
334
338
346
354
367
378
392
391
392
381
374
357
340
326
314
309
305
306
309
310
312
313
318
319
322
325
327
329
329
331
331
332
331
332
332
330
331
341
349
342
336
337
338
342
340
332
305
523
675
632
295
339
344
339
342
346
350
356
360
367
377
384
395
406
417
416
410
398
387
365
350
336
330
325
323
323
326
325
329
329
331
331
334
334
339
338
339
336
339
336
336
335
333
332
334
334
334
329
328
333
344
348
331
331
332
331
332
329
303
428
675
674
370
312
334
325
325
328
333
336
339
349
355
362
373
383
394
398
395
389
378
363
345
330
319
314
314
310
313
314
317
319
321
320
325
323
326
325
328
324
327
325
325
324
325
324
325
324
322
319
328
340
337
327
326
329
327
328
327
298
443
675
674
352
308
330
319
319
322
326
331
337
340
350
359
369
378
385
389
386
374
366
351
334
319
310
303
305
302
304
305
309
308
311
311
314
314
316
317
315
319
317
317
317
318
317
317
319
321
316
316
316
329
337
326
322
323
324
328
328
312
322
655
674
501
279
340
332
329
333
338
342
350
355
362
370
381
392
401
407
406
400
389
378
360
347
335
330
326
328
328
331
331
335
335
341
341
345
342
345
343
345
342
341
342
341
341
339
338
340
336
333
335
345
354
339
335
336
338
337
337
322
325
623
675
615
291
339
331
327
331
333
339
342
347
354
362
369
381
389
398
395
388
379
367
352
337
325
319
316
315
317
318
319
321
324
323
323
323
326
322
325
322
322
319
323
318
320
319
316
323
317
312
317
328
335
318
314
315
320
322
319
295
339
673
674
443
275
326
314
314
318
323
326
335
341
347
354
370
381
393
398
396
384
377
359
348
334
324
317
319
318
319
319
322
322
326
330
333
335
335
338
337
340
338
338
334
334
338
337
333
331
332
343
354
338
334
336
338
339
336
326
324
592
674
571
293
341
332
329
329
334
337
343
347
353
357
370
379
389
394
394
387
376
363
347
333
321
317
311
315
310
316
316
317
322
325
322
325
324
326
324
327
325
325
323
325
324
325
320
319
328
342
331
323
322
328
326
329
319
302
533
675
644
287
331
324
316
317
326
328
333
336
344
348
360
368
379
386
384
378
370
358
345
330
321
313
308
306
314
312
315
319
320
322
324
325
324
328
325
327
325
325
323
326
325
322
317
323
334
339
320
323
321
325
321
323
297
380
675
675
439
291
323
314
312
314
319
322
328
335
339
349
360
367
374
374
369
360
353
341
331
318
314
309
309
310
312
312
318
316
321
322
327
325
326
327
327
327
324
325
325
325
322
322
326
341
343
328
328
330
330
331
328
300
408
675
676
445
293
330
315
318
320
327
329
335
341
351
355
367
374
379
381
375
362
357
349
339
329
326
322
320
323
321
324
324
328
328
330
329
332
330
329
325
324
322
324
319
316
318
332
332
320
316
318
318
318
318
298
372
674
675
404
273
322
311
312
313
319
323
328
336
340
349
361
370
375
376
367
359
350
339
329
320
311
309
308
311
308
313
315
320
320
326
325
330
328
331
330
333
329
327
327
334
345
341
329
332
332
333
337
329
312
492
675
661
300
328
338
326
330
335
339
344
350
354
364
370
380
389
391
390
382
368
358
347
337
328
321
319
320
320
321
323
325
329
328
332
330
331
331
332
330
327
329
323
320
327
337
337
321
320
319
322
321
320
297
425
675
674
343
301
322
309
310
314
319
326
328
337
343
352
358
368
373
372
364
359
346
336
324
315
310
307
307
308
310
312
316
317
321
320
322
322
321
319
322
320
320
317
314
312
317
330
333
315
314
314
315
316
313
293
399
674
674
360
281
316
303
302
302
307
312
318
320
329
339
349
356
363
363
355
348
342
328
318
308
305
299
302
299
303
306
309
309
312
315
319
318
318
318
315
319
314
317
317
328
335
323
316
320
318
324
323
322
310
583
675
556
267
334
335
332
335
349
350
356
365
373
377
391
397
407
408
402
392
379
369
358
346
341
337
336
337
337
341
338
344
345
347
348
352
351
355
351
352
350
348
344
347
353
365
349
344
345
344
346
346
341
339
573
668
508
309
353
341
337
341
343
347
352
357
363
369
378
386
394
398
396
389
381
362
350
338
332
323
321
323
325
324
329
333
333
333
332
331
332
329
329
327
328
327
323
320
325
339
340
326
324
328
327
329
326
313
422
674
670
341
314
332
318
323
327
330
335
343
348
355
359
368
380
386
381
376
365
355
344
332
325
317
314
316
316
318
322
325
327
326
330
328
329
329
329
328
329
326
328
325
324
320
329
341
338
322
322
325
325
327
317
296
551
675
670
283
325
323
314
317
323
330
330
334
340
351
356
360
367
369
362
355
346
342
331
329
319
319
312
315
314
317
320
323
324
328
330
331
330
329
330
328
326
327
326
323
320
323
340
342
327
320
325
322
328
322
297
410
675
675
427
288
322
307
308
314
317
319
326
333
341
345
353
358
359
360
352
342
336
332
325
316
314
308
310
311
312
317
315
319
322
321
322
325
324
320
320
321
318
317
312
322
330
339
318
317
320
322
320
322
293
386
675
676
501
284
323
307
309
312
318
321
327
330
338
347
351
359
364
361
354
345
340
335
327
320
316
314
314
312
315
317
317
321
325
325
324
324
326
323
323
323
319
314
314
324
331
323
312
313
311
314
312
297
296
616
676
641
253
306
299
292
295
300
302
310
316
322
328
340
344
349
349
343
333
326
320
311
303
301
300
298
296
299
302
304
306
312
314
314
317
317
319
319
318
314
316
324
335
320
317
317
321
318
323
313
327
641
674
487
271
336
325
321
328
332
341
343
351
358
366
377
386
389
390
382
370
362
351
343
334
331
327
328
329
329
331
337
337
339
343
346
345
348
344
347
343
339
336
347
354
346
336
340
337
337
339
328
334
622
675
581
286
341
330
325
333
334
337
344
352
356
366
372
384
387
389
382
376
366
356
344
335
327
325
324
324
325
329
329
334
336
337
338
338
339
338
338
337
337
332
331
336
350
346
333
332
334
334
336
328
319
545
675
665
294
331
331
322
327
330
335
339
345
350
360
367
375
381
384
378
370
363
352
342
333
327
321
318
319
320
322
323
328
330
329
331
331
332
330
333
331
329
327
329
325
324
320
325
338
340
325
323
323
324
324
322
299
423
675
673
337
302
326
313
316
318
323
328
336
338
346
353
364
370
376
373
367
357
349
338
327
319
313
309
311
310
312
316
320
318
321
321
322
325
322
321
322
324
323
323
322
320
318
327
336
338
324
330
328
330
331
328
301
499
675
652
290
327
334
326
328
333
338
343
347
356
364
374
381
389
390
388
377
368
357
346
336
329
326
323
323
323
327
326
331
334
336
335
338
336
338
339
340
336
337
335
334
326
331
336
349
339
330
329
331
329
330
319
314
595
675
623
280
332
323
318
321
327
328
334
339
348
354
362
371
381
381
378
369
360
349
337
323
314
311
310
308
313
314
315
315
320
318
322
320
322
321
322
322
321
322
320
316
311
319
332
332
315
317
315
318
318
314
289
478
675
669
287
309
314
305
308
314
317
326
327
337
344
355
363
372
380
379
371
363
352
336
325
313
310
307
307
305
309
310
314
315
316
321
324
323
324
325
326
327
327
326
325
322
326
339
342
325
325
330
332
332
333
306
414
675
671
345
314
344
331
334
339
345
348
353
362
368
378
387
398
404
402
395
382
375
358
347
339
334
327
331
332
334
334
338
339
342
344
347
349
348
346
347
346
345
345
342
340
334
339
350
354
336
337
334
338
336
335
305
445
675
673
346
325
339
326
327
335
338
342
347
354
359
368
377
389
393
392
384
380
368
352
336
325
320
315
314
317
318
318
324
324
326
327
329
328
330
327
330
328
328
326
329
328
324
322
323
334
345
329
325
324
328
326
326
309
317
630
675
600
274
331
321
317
319
324
327
334
340
347
353
361
371
382
383
380
372
365
350
341
323
314
312
311
307
310
311
313
315
318
318
319
317
318
319
320
320
319
318
317
317
315
317
315
318
316
315
318
319
312
317
324
338
325
319
320
321
323
326
307
310
634
674
511
274
331
322
317
322
327
332
337
343
350
355
366
375
385
390
387
380
369
356
344
330
321
315
314
313
316
316
323
322
327
330
333
334
335
336
337
337
336
336
336
334
335
333
331
333
334
332
329
330
340
351
338
333
332
334
335
336
320
328
635
675
550
288
341
331
327
332
334
340
344
351
356
364
373
385
393
398
394
387
378
365
347
333
323
317
313
313
315
317
319
319
322
324
325
324
330
327
328
326
328
326
330
326
327
327
328
328
329
324
321
324
332
341
334
327
329
328
328
329
312
315
611
675
624
283
331
323
320
323
327
333
337
343
347
359
364
377
384
391
387
384
371
360
345
332
321
316
312
313
312
312
316
316
318
320
321
321
324
322
324
323
323
321
322
320
320
318
320
314
312
312
326
332
316
313
317
319
319
315
296
334
672
674
445
274
326
315
314
316
322
328
335
340
345
355
365
376
386
391
386
381
369
354
338
326
312
308
304
306
306
308
309
311
311
318
318
324
321
323
327
329
326
328
328
328
323
328
340
347
330
330
332
333
335
336
321
348
672
673
451
295
347
336
337
337
343
348
355
355
366
375
385
395
405
406
402
394
384
365
350
334
328
320
321
321
321
321
327
326
329
329
332
334
332
335
333
334
334
335
332
327
325
333
342
340
325
327
328
329
328
324
296
473
675
672
316
320
330
320
320
327
330
336
341
346
352
364
373
384
389
390
385
376
365
348
333
320
314
309
310
309
312
315
320
319
321
319
325
322
326
325
327
324
326
324
319
319
333
338
331
322
323
324
325
324
312
319
614
675
615
275
326
318
314
319
320
326
328
336
341
351
359
370
376
383
376
372
362
349
333
319
306
303
298
300
300
302
304
310
310
310
311
312
313
314
313
314
314
313
313
307
312
324
329
313
314
311
315
315
317
296
358
674
672
385
283
324
317
315
319
324
331
336
342
351
361
369
384
391
392
388
380
369
357
345
330
324
318
318
320
322
324
328
328
332
334
338
338
342
340
340
341
339
338
337
332
335
343
353
338
332
335
337
333
338
323
323
616
675
590
285
341
331
326
331
335
339
345
349
356
363
376
384
392
396
396
388
379
366
350
334
327
321
319
317
319
321
324
327
329
330
333
332
333
334
332
331
332
332
331
328
324
327
338
348
330
327
329
330
329
332
304
358
674
675
497
289
331
320
317
322
325
330
335
342
348
357
363
376
380
383
378
371
360
347
333
319
311
304
303
303
301
305
309
308
312
312
311
316
319
315
319
320
320
321
322
318
324
335
340
322
322
324
326
325
326
310
351
673
674
439
281
334
322
320
326
331
332
339
342
351
357
370
380
386
386
382
371
363
346
333
321
315
308
309
309
313
312
318
317
319
320
323
325
324
326
325
325
324
323
322
321
317
320
329
338
320
320
321
322
320
324
301
339
668
675
514
284
327
315
311
317
319
325
327
336
342
350
358
367
373
377
374
369
358
347
333
321
311
307
304
306
310
309
312
316
317
317
320
319
320
320
320
320
321
321
320
314
316
320
335
334
320
320
321
323
326
320
289
416
675
675
413
292
323
311
309
316
319
325
328
336
344
352
359
370
375
375
369
361
351
344
327
319
311
308
306
309
308
311
313
315
315
320
319
321
320
323
323
322
321
321
320
314
320
332
337
318
321
320
323
321
325
297
393
675
674
372
291
331
320
321
327
329
337
342
351
359
368
379
389
395
396
390
380
370
358
342
335
330
328
326
326
328
328
332
332
337
341
343
341
345
343
345
341
342
339
337
332
337
348
354
335
334
334
334
335
334
309
380
674
675
454
302
339
326
327
328
334
338
341
347
356
362
373
382
390
389
387
378
367
352
339
327
322
315
316
314
319
319
322
324
327
325
328
328
329
329
329
329
328
328
324
324
332
343
337
325
327
327
327
330
320
303
537
676
671
297
323
327
315
322
323
332
332
341
345
352
362
374
379
386
384
377
365
356
342
331
321
312
312
309
312
313
314
316
318
319
319
318
321
320
321
320
320
317
319
313
313
319
331
327
312
315
316
317
319
310
289
474
675
664
287
307
319
313
313
317
323
329
332
341
349
359
368
377
384
382
373
368
353
343
328
319
311
309
308
309
309
314
317
319
319
326
329
332
330
331
333
334
333
331
331
335
346
348
331
330
334
337
335
334
313
431
675
672
344
318
340
330
332
332
340
344
350
353
363
369
380
388
393
392
385
376
364
350
339
328
321
318
320
319
321
324
326
328
332
334
332
334
333
334
333
333
332
330
324
326
338
350
332
327
327
330
328
331
316
329
646
675
582
286
334
324
321
327
327
332
336
343
351
358
366
375
385
386
384
374
365
356
341
327
322
314
315
312
316
319
321
322
326
326
329
327
330
328
330
327
327
326
325
320
321
331
342
329
321
322
322
326
324
310
301
573
675
637
272
322
317
310
313
317
322
328
331
341
347
356
364
376
375
375
366
359
348
335
322
313
306
305
305
308
309
310
312
316
317
320
322
320
321
321
325
323
324
319
322
322
338
337
323
323
328
329
333
327
303
459
675
663
307
322
339
330
333
336
341
344
351
358
365
374
383
390
394
393
383
376
362
350
336
328
320
321
316
318
318
321
322
326
327
330
329
331
330
332
328
329
326
327
320
320
324
335
339
321
321
319
321
322
320
292
379
674
674
399
292
320
309
308
314
317
322
324
330
337
346
353
363
369
369
364
359
346
336
322
311
303
303
300
301
301
305
308
310
313
315
315
316
314
315
317
314
319
315
310
311
323
334
324
313
316
316
318
318
310
302
580
675
647
274
318
312
309
312
316
320
324
332
337
343
352
360
369
372
370
363
357
345
332
323
315
308
305
308
309
311
313
317
317
319
319
322
321
326
323
323
323
321
319
327
335
338
322
322
324
328
326
328
306
415
675
671
340
305
337
323
330
332
338
344
350
356
367
374
384
393
399
396
391
377
371
355
345
336
332
327
328
327
330
331
333
335
340
342
342
342
345
344
343
343
338
334
335
346
354
342
334
335
337
337
337
328
332
626
675
603
290
341
329
329
328
335
336
342
348
355
363
373
381
386
389
385
377
369
358
342
332
324
322
318
320
321
322
325
329
329
331
329
332
332
334
332
333
331
328
323
330
339
346
330
327
328
329
327
331
305
383
675
676
489
293
330
319
319
321
326
331
335
342
348
354
363
372
378
376
372
359
352
341
329
317
313
307
307
305
310
308
311
314
315
316
321
317
320
319
320
320
319
316
314
316
328
335
321
316
316
321
320
321
303
338
670
674
484
270
325
314
312
320
321
330
333
339
348
356
366
376
380
383
375
369
359
348
334
326
322
317
318
319
320
321
327
328
328
333
338
338
340
338
339
337
340
337
330
333
344
353
341
330
334
334
336
335
324
325
611
675
609
289
337
329
325
327
332
340
341
345
353
361
370
381
386
388
383
375
364
358
342
331
320
317
316
315
317
323
322
325
325
328
327
329
330
330
328
330
328
329
326
324
323
324
335
345
330
324
327
327
328
328
306
326
666
676
603
285
333
318
317
319
324
328
334
336
346
351
360
370
376
375
373
365
358
349
335
326
317
314
312
314
314
316
318
319
322
323
324
326
327
326
325
327
324
324
325
324
319
319
319
334
338
324
318
322
319
320
320
294
376
675
675
430
284
323
309
311
311
320
324
327
333
341
351
357
368
373
374
366
361
349
341
324
317
311
308
304
307
307
308
311
314
315
320
319
322
322
324
323
323
325
324
321
319
324
338
337
323
325
326
328
328
327
302
441
675
672
330
316
336
330
329
334
338
345
346
357
363
372
380
392
393
391
383
374
361
350
336
327
320
320
317
319
320
321
324
327
328
330
334
334
336
332
334
333
332
330
326
320
325
336
342
324
324
322
323
325
326
297
364
674
675
474
288
323
309
308
312
316
320
325
328
337
346
352
358
365
366
361
352
344
332
318
308
303
295
296
295
298
298
301
301
303
304
310
306
310
309
311
312
309
310
308
304
305
312
324
320
306
307
309
309
310
302
278
505
676
673
289
305
307
299
301
307
310
317
321
330
335
346
356
364
367
370
362
356
344
333
318
310
304
304
303
306
307
307
312
312
315
315
319
321
321
325
324
321
322
322
321
319
321
334
340
324
325
324
329
328
332
312
340
672
675
503
288
345
337
335
341
346
351
355
362
370
380
391
401
406
407
402
394
384
373
359
345
342
337
335
335
337
337
344
341
347
348
351
352
356
356
357
353
353
351
352
348
348
348
357
366
352
344
344
349
348
347
329
350
666
675
600
307
349
339
334
341
343
347
350
357
360
371
379
391
395
400
394
389
378
369
351
339
329
324
322
322
322
326
327
327
329
329
331
330
334
332
332
334
335
333
335
333
333
331
329
326
339
349
340
329
331
332
332
332
319
301
561
676
672
303
328
326
319
320
323
327
333
334
342
350
357
369
376
377
377
370
362
352
336
323
310
305
301
301
299
306
305
307
306
309
311
314
314
314
316
316
317
316
315
315
312
317
317
315
313
320
331
329
318
320
320
320
323
316
283
470
675
656
296
318
331
321
326
329
337
341
347
355
361
369
383
392
397
396
390
380
368
352
341
331
327
322
322
322
325
329
329
330
332
337
338
339
339
341
340
340
338
339
336
337
335
331
327
331
343
351
334
331
333
333
332
334
311
342
671
676
575
293
336
325
323
327
332
335
338
346
353
358
369
380
386
390
389
380
371
359
344
328
321
315
312
312
316
313
317
318
320
319
324
321
324
322
325
324
325
322
321
319
318
320
318
314
316
327
333
318
315
316
316
316
315
292
340
674
674
458
274
321
308
307
311
314
319
326
330
339
347
359
367
375
377
375
369
360
344
327
312
308
300
298
298
299
301
303
304
304
307
310
313
313
317
316
320
316
319
319
320
316
318
325
338
327
323
322
327
326
329
319
294
554
675
624
281
330
331
325
329
333
336
341
347
353
362
373
384
393
398
398
387
377
364
350
333
326
318
317
317
319
318
322
322
327
329
331
334
335
335
337
334
337
335
335
332
332
330
326
335
348
343
329
330
331
334
331
326
299
500
675
673
327
327
333
325
327
332
334
342
344
352
360
369
378
389
396
399
392
383
372
354
340
326
320
315
314
314
317
319
320
320
321
320
324
323
324
321
325
322
323
321
321
318
316
315
322
330
331
313
317
314
317
317
315
283
433
675
671
317
303
321
312
314
318
322
328
334
341
351
359
369
379
390
389
384
376
364
347
333
317
311
307
308
308
312
310
314
314
318
319
323
323
328
328
330
330
331
328
329
325
327
341
349
335
332
332
335
335
335
325
319
614
675
576
285
341
334
331
332
340
342
349
353
360
367
377
387
395
401
397
389
378
363
347
334
324
319
317
317
316
317
320
322
323
325
327
330
329
328
328
329
327
326
326
324
323
321
318
329
337
328
319
321
323
323
322
306
303
595
675
632
280
324
315
312
316
321
323
327
333
339
346
355
368
374
380
378
373
363
351
337
323
311
308
302
304
304
308
309
313
313
318
316
320
320
320
320
323
321
322
320
321
323
322
319
315
318
333
338
322
322
320
323
323
326
300
333
671
675
540
278
325
315
311
314
317
323
326
333
339
348
354
365
375
377
375
367
360
348
334
319
308
305
305
304
305
308
311
312
316
316
322
320
322
322
325
324
325
323
325
322
322
320
333
342
335
324
330
328
333
336
330
299
502
675
662
304
334
344
335
339
342
348
354
359
364
375
382
393
400
407
401
396
383
375
358
347
334
331
327
329
325
327
330
333
334
337
336
342
341
340
341
342
340
339
338
338
337
335
333
332
343
352
342
335
332
335
337
337
320
311
597
676
655
294
335
329
324
324
332
333
339
344
348
356
369
374
383
388
386
379
372
360
345
333
322
319
315
315
314
317
320
321
322
326
326
328
328
330
326
330
328
328
328
330
326
324
319
327
339
343
326
326
327
327
327
325
295
395
675
675
428
296
327
313
316
318
323
327
330
335
344
350
361
370
378
377
373
363
352
340
326
311
306
301
301
302
304
303
308
306
309
314
315
313
315
316
317
316
318
319
316
315
314
323
334
329
316
319
321
323
324
322
292
478
675
667
304
320
334
329
329
335
340
347
350
358
367
377
385
396
399
399
392
379
369
354
343
334
327
325
325
327
328
330
329
331
339
336
342
339
342
339
338
338
340
334
332
328
328
339
349
331
329
325
325
327
328
312
319
621
676
596
279
333
322
318
323
326
330
338
343
351
356
367
377
384
386
384
371
368
356
343
329
326
317
319
316
323
319
324
324
328
328
330
331
331
330
333
330
332
332
327
328
329
342
349
331
328
332
332
332
331
310
389
675
676
479
301
339
324
324
328
334
336
343
345
357
364
374
378
389
385
383
375
367
354
343
329
325
321
320
319
323
327
330
330
333
335
337
337
336
340
337
339
338
336
330
332
343
354
340
334
333
335
334
337
319
327
632
676
666
296
325
322
317
319
323
329
332
341
343
350
359
367
374
374
372
363
358
347
334
324
315
312
310
308
311
311
312
310
315
315
315
313
314
312
313
312
313
306
304
310
321
330
314
309
310
312
312
312
293
366
675
675
424
271
314
306
303
309
310
318
322
326
335
347
353
364
366
365
356
348
340
333
323
312
303
304
305
306
307
307
310
314
317
322
323
325
324
325
326
323
322
321
332
336
329
323
326
328
328
328
324
328
612
674
531
280
342
331
327
331
337
341
347
352
359
368
376
384
390
392
387
376
367
356
345
336
327
323
324
325
327
329
331
334
335
339
337
336
336
339
336
335
329
332
338
347
336
328
327
331
331
330
323
330
600
675
566
284
337
326
325
326
332
336
338
344
351
357
367
377
387
384
380
370
364
349
336
324
318
312
315
312
316
315
321
323
324
324
327
328
328
326
327
326
326
322
325
336
343
328
322
324
323
325
326
313
373
674
675
459
288
333
318
318
318
325
327
336
341
348
354
365
371
376
372
370
361
352
341
329
318
312
311
310
311
311
315
315
317
318
321
323
323
321
319
316
320
319
317
310
312
323
332
317
312
312
315
312
314
296
343
672
675
450
267
315
302
303
305
309
315
320
324
334
340
349
360
363
364
359
349
340
330
321
307
306
299
299
298
302
302
305
309
313
315
314
315
319
317
320
316
320
317
315
318
330
337
321
320
323
324
324
328
312
351
673
673
437
290
339
330
328
334
339
346
348
355
361
369
378
390
392
393
383
377
365
356
341
334
330
327
323
326
328
329
331
334
337
336
341
341
341
340
340
339
339
339
334
331
334
345
352
335
335
332
334
333
336
313
373
674
675
466
300
338
326
325
329
332
338
343
348
356
363
370
381
386
385
380
371
363
350
336
325
320
316
318
316
319
320
324
324
326
327
330
329
332
331
332
330
331
328
330
328
326
321
330
343
341
326
327
325
328
328
324
295
459
675
675
353
312
330
319
321
323
330
332
338
343
352
359
368
373
380
376
368
360
353
338
329
318
314
310
311
309
313
313
315
316
319
320
322
321
318
321
321
318
319
320
317
317
312
313
319
333
326
315
312
316
316
317
307
285
485
675
654
278
311
315
307
311
311
318
322
330
335
341
351
363
366
373
369
360
352
340
329
315
308
300
300
303
303
303
309
309
312
317
321
320
327
324
327
327
328
326
327
320
324
329
343
330
324
324
328
329
331
322
310
544
673
560
286
339
333
328
330
336
338
347
352
357
363
376
384
393
395
395
383
376
363
351
336
327
320
321
323
323
327
331
333
336
334
333
336
338
337
336
339
335
336
335
334
333
336
348
353
335
336
340
341
338
339
320
439
674
633
324
339
347
339
341
345
349
354
358
364
369
381
392
400
406
403
398
389
377
362
348
336
332
329
328
330
331
333
338
337
340
341
343
340
341
342
346
342
344
342
343
337
336
338
352
354
341
338
342
339
343
341
319
418
675
675
398
320
343
335
334
336
342
345
349
354
361
369
376
386
385
388
380
370
359
350
338
327
319
316
314
316
316
322
321
326
326
326
326
328
329
329
329
328
328
325
326
324
322
321
327
337
341
322
318
320
321
320
323
292
412
675
674
341
293
323
310
309
319
319
324
329
337
345
354
362
370
374
372
365
355
343
336
323
313
310
308
307
306
310
312
317
319
325
327
331
332
335
336
334
332
333
330
331
326
331
343
344
327
329
330
330
328
329
308
428
674
642
310
322
334
325
328
330
335
340
345
351
360
366
377
384
390
389
382
368
360
343
332
321
317
313
314
315
317
316
321
323
326
325
327
325
327
327
325
326
324
326
324
319
323
333
341
328
325
326
327
329
329
312
356
671
674
460
293
338
320
321
323
329
329
337
342
347
354
364
373
380
377
375
363
354
341
331
319
312
309
309
311
311
314
316
319
320
324
321
324
324
327
324
325
325
328
321
320
323
333
342
328
322
323
327
329
327
313
351
672
675
509
287
334
318
318
322
324
331
339
345
348
356
364
371
376
377
373
365
352
344
334
327
320
320
315
319
318
322
321
329
327
331
332
333
330
335
331
331
331
331
324
323
334
347
340
327
329
328
327
329
326
305
545
676
673
306
321
322
317
315
322
323
329
333
341
344
355
361
369
368
368
355
